0.000700 18
0.005800 58
0.006300 43
0.014900 31
0.015500 92
0.016200 71
0.017900 25
0.019000 45
0.023700 97
0.023800 62
0.025300 4
0.025500 1
0.025900 53
0.027300 91
0.028300 52
0.028600 1
0.036400 3
0.037300 70
0.037700 29
0.038000 49
0.038300 75
0.042500 36
0.044600 82
0.045800 33
0.045800 77
0.048100 17
0.050000 39
0.050500 36
0.052300 64
0.062900 2
0.062900 40
0.063800 53
0.065700 68
0.066000 28
0.066600 46
0.068600 70
0.069000 61
0.072700 48
0.074400 80
0.075700 35
0.077100 57
0.078800 88
0.085300 65
0.087100 68
0.089500 61
0.090600 67
0.091700 12
0.092100 75
0.093100 30
0.093100 50
0.093600 61
0.094500 2
0.097400 49
0.099500 85
0.100300 9
0.102600 44
0.104900 27
0.105500 28
0.107200 28
0.107700 8
0.109300 54
0.114300 10
0.114900 82
0.115100 29
0.116300 59
0.117000 31
0.118800 95
0.119600 68
0.120100 10
0.125300 12
0.128000 44
0.130300 96
0.130900 4
0.134300 60
0.135700 88
0.137600 79
0.137900 10
0.138700 69
0.141500 80
0.148300 50
0.149100 6
0.149400 10
0.150900 48
0.157400 63
0.159700 54
0.160900 22
0.163500 38
0.164100 9
0.166500 45
0.167100 25
0.167400 44
0.168400 66
0.168900 50
0.170000 27
0.172200 42
0.174500 25
0.176100 33
0.177700 2
0.178200 4
0.183800 75
0.187700 15
0.190000 50
0.190200 96
0.192400 58
0.192600 33
0.192900 97
0.193000 58
0.193900 94
0.195700 3
0.196100 4
0.198800 10
0.198800 72
0.198900 95
0.202300 39
0.203000 3
0.204200 21
0.205100 46
0.206100 83
0.206400 99
0.207900 99
0.208200 14
0.209200 24
0.213400 86
0.219100 57
0.223000 16
0.224700 57
0.226900 39
0.227300 67
0.228300 7
0.233700 63
0.239700 85
0.241800 72
0.244300 15
0.245700 85
0.250000 12
0.250300 83
0.253200 4
0.253500 73
0.254900 75
0.256800 47
0.257300 88
0.258800 25
0.265100 83
0.265500 26
0.274100 61
0.275400 49
0.279100 12
0.281200 73
0.284500 47
0.289100 49
0.289600 89
0.290500 37
0.292200 20
0.294500 37
0.297700 63
0.301800 75
0.305700 5
0.308000 6
0.312700 74
0.317600 33
0.317900 96
0.320300 22
0.324800 29
0.325100 0
0.327000 87
0.327900 20
0.328600 99
0.336100 80
0.338000 22
0.339000 37
0.340700 69
0.341200 33
0.342500 50
0.343400 83
0.343900 70
0.344200 20
0.346900 89
0.347600 92
0.351700 79
0.352700 29
0.355200 6
0.356800 64
0.357600 20
0.358200 86
0.361300 62
0.365000 94
0.366500 53
0.366900 50
0.368800 18
0.369900 65
0.379600 59
0.382300 56
0.382500 99
0.383700 25
0.384500 83
0.384600 73
0.386000 63
0.387100 56
0.388100 77
0.389400 29
0.390600 5
0.391500 69
0.391600 62
0.393500 71
0.397500 46
0.401700 14
0.401800 23
0.409500 22
0.410300 99
0.410700 98
0.411200 12
0.419900 55
0.420400 5
0.424200 28
0.424900 79
0.425400 86
0.427700 29
0.428600 88
0.431900 84
0.434700 23
0.436600 10
0.437100 40
0.438600 50
0.442900 16
0.444700 11
0.445000 43
0.445500 19
0.446600 36
0.446800 95
0.450200 2
0.450400 68
0.452500 79
0.455300 28
0.456000 54
0.457700 22
0.458500 54
0.459000 21
0.460300 63
0.460300 86
0.464400 8
0.469300 24
0.471100 85
0.471200 68
0.474500 3
0.479500 77
0.480200 72
0.481300 9
0.481800 67
0.483500 70
0.484300 83
0.484900 93
0.487200 60
0.487200 73
0.488000 90
0.488100 72
0.495400 36
0.496600 13
0.497700 38
0.498600 48
0.498800 76
0.500500 65
0.501600 89
0.504000 86
0.506400 37
0.506700 18
0.507000 22
0.507500 30
0.508200 48
0.509400 81
0.510800 5
0.512400 36
0.518100 47
0.519300 26
0.522300 85
0.525900 24
0.525900 79
0.526000 39
0.526400 30
0.526600 96
0.527500 99
0.529100 68
0.529500 34
0.532100 48
0.532500 51
0.536300 72
0.537700 63
0.539800 8
0.544200 10
0.546400 58
0.546600 8
0.549500 52
0.551000 41
0.552100 95
0.553800 65
0.560800 18
0.561300 92
0.565700 47
0.566800 4
0.567200 19
0.570700 19
0.574000 94
0.575100 9
0.579800 20
0.584200 15
0.586800 74
0.587300 62
0.588700 73
0.590300 89
0.590800 46
0.590800 71
0.590900 11
0.597400 25
0.597600 5
0.597700 98
0.602300 5
0.608100 64
0.609600 68
0.610300 46
0.612900 79
0.617200 24
0.617600 68
0.619100 74
0.621100 37
0.621300 52
0.622400 14
0.625100 20
0.625200 54
0.625900 0
0.626300 92
0.627400 66
0.632200 55
0.635900 68
0.638700 24
0.639600 39
0.639900 50
0.641800 7
0.653300 41
0.655200 93
0.657600 26
0.658000 35
0.660100 44
0.662100 92
0.665100 74
0.667300 82
0.667700 36
0.667700 90
0.668700 3
0.675500 61
0.677500 33
0.679700 9
0.679700 61
0.683600 56
0.685300 63
0.685500 88
0.685600 95
0.688000 78
0.690400 79
0.694300 86
0.695300 63
0.697500 40
0.701200 40
0.702800 12
0.706000 24
0.706600 97
0.709000 77
0.709100 40
0.709800 36
0.713800 44
0.718200 44
0.724100 19
0.725700 63
0.726100 84
0.730000 98
0.732500 58
0.734000 27
0.734500 57
0.734900 51
0.735800 32
0.736400 57
0.739300 83
0.740000 35
0.746000 32
0.746800 95
0.752900 33
0.754400 49
0.756400 1
0.758900 81
0.770000 79
0.770600 0
0.771800 87
0.772000 65
0.775700 27
0.777000 52
0.777200 81
0.784200 89
0.785600 53
0.792900 67
0.795800 2
0.802700 30
0.802900 84
0.805500 68
0.806300 25
0.813600 7
0.814400 51
0.815300 61
0.815700 3
0.816100 24
0.822200 57
0.824600 1
0.824900 62
0.825300 87
0.828200 8
0.831400 5
0.836200 69
0.845100 4
0.846300 12
0.848400 46
0.850100 43
0.850100 90
0.851900 60
0.852000 97
0.852600 99
0.853000 66
0.853400 11
0.854200 71
0.855400 59
0.855800 83
0.857600 27
0.858200 85
0.860800 10
0.860900 56
0.862600 80
0.864000 43
0.864600 97
0.875300 28
0.876700 47
0.881600 77
0.883000 19
0.883000 73
0.883700 30
0.884000 27
0.886800 53
0.887400 87
0.887700 99
0.890100 54
0.890100 80
0.890400 23
0.890700 18
0.890900 55
0.895200 9
0.895600 38
0.897200 69
0.898000 61
0.898700 23
0.899200 29
0.900300 44
0.900500 70
0.901900 79
0.903400 85
0.907000 80
0.912900 25
0.913500 52
0.914800 11
0.923600 62
0.925200 96
0.932500 95
0.939400 74
0.941400 41
0.945800 4
0.946100 76
0.948000 30
0.960900 82
0.962100 95
0.962300 8
0.963700 1
0.970400 45
0.971100 48
0.975100 20
0.976700 64
0.976800 55
0.978500 81
0.978500 99
0.979700 22
0.985200 65
0.989200 51
0.989700 40
0.990900 74
0.992800 33
0.993000 46
0.993700 87
0.993900 38
0.998100 93
0.999000 25
1.004100 5
1.005100 63
1.007200 41
1.007500 8
1.009800 36
1.018200 98
1.021000 30
1.021700 59
1.022600 90
1.023300 51
1.025300 50
1.026400 0
1.030000 68
1.033800 84
1.037100 1
1.038300 58
1.044800 76
1.044900 40
1.045200 76
1.048900 25
1.053200 82
1.054300 29
1.057000 51
1.059600 92
1.060300 4
1.063800 89
1.071700 32
1.072800 72
1.073300 72
1.075500 80
1.077100 60
1.078300 14
1.083600 9
1.086300 26
1.093900 83
1.095400 14
1.096000 45
1.096800 45
1.098300 99
1.100400 21
1.100600 43
1.105700 17
1.106500 44
1.114500 7
1.114500 21
1.115600 54
1.115800 94
1.116900 15
1.120700 89
1.123200 51
1.126000 8
1.126800 76
1.130300 23
1.130300 46
1.134400 4
1.135700 68
1.137200 50
1.137700 47
1.137800 66
1.140100 17
1.144000 77
1.144700 28
1.145700 17
1.147200 9
1.148000 9
1.149600 57
1.154100 17
1.154600 56
1.156300 3
1.156700 49
1.159200 24
1.162300 22
1.171200 79
1.174000 29
1.176100 40
1.177300 37
1.181000 24
1.181400 46
1.184000 12
1.184600 27
1.186100 50
1.190300 89
1.191600 34
1.193800 2
1.193800 39
1.195200 94
1.196800 36
1.198100 46
1.199900 27
1.205300 47
1.206400 35
1.208300 30
1.208300 59
1.208400 14
1.208900 3
1.210900 74
1.214600 62
1.215700 1
1.218900 37
1.223600 71
1.225200 53
1.226800 35
1.230000 66
1.231000 23
1.233100 24
1.241700 14
1.244800 66
1.245600 78
1.246500 35
1.247200 93
1.249100 29
1.249600 7
1.250600 3
1.252800 24
1.253400 8
1.256600 36
1.258100 94
1.260700 47
1.262400 88
1.265100 61
1.265500 45
1.269700 17
1.274900 1
1.275100 19
1.276900 41
1.279200 97
1.281800 86
1.284000 7
1.284300 88
1.285900 19
1.286700 30
1.287000 60
1.287200 49
1.291500 30
1.295000 12
1.295300 53
1.297100 3
1.302100 65
1.306600 84
1.311700 84
1.311800 52
1.316800 45
1.317800 68
1.321500 10
1.322500 22
1.327000 14
1.328700 26
1.330400 99
1.332300 74
1.337300 86
1.341500 65
1.342600 94
1.343000 24
1.345000 38
1.345600 5
1.346800 24
1.347900 38
1.349100 73
1.350700 29
1.351500 74
1.352400 37
1.355900 89
1.358700 65
1.364000 93
1.365300 62
1.366100 46
1.371500 5
1.372200 23
1.372900 42
1.377000 89
1.377600 85
1.378000 16
1.379400 97
1.380000 64
1.380800 72
1.384100 45
1.387600 69
1.390200 7
1.395600 28
1.395900 69
1.401200 87
1.405900 55
1.408000 43
1.409600 35
1.412500 44
1.415500 17
1.425000 13
1.425300 45
1.429900 57
1.432600 73
1.433200 83
1.433700 31
1.436800 11
1.438000 94
1.439400 98
1.439600 29
1.440600 61
1.447500 89
1.448600 36
1.449200 3
1.453300 91
1.455000 49
1.456400 60
1.458700 71
1.459200 73
1.461900 52
1.462000 44
1.467200 12
1.467400 9
1.467800 74
1.470300 64
1.479000 45
1.482000 86
1.482500 43
1.483800 59
1.484800 25
1.485500 95
1.486300 83
1.486400 54
1.488500 74
1.489200 0
1.491000 45
1.492900 62
1.498500 71
1.498700 58
1.501000 71
1.501600 67
1.502000 4
1.502700 17
1.503300 64
1.503700 61
1.504900 56
1.508900 49
1.509700 29
1.510400 21
1.510900 11
1.517000 22
1.517000 94
1.517500 91
1.520900 15
1.521200 60
1.523800 51
1.525300 60
1.527300 11
1.528700 52
1.529500 6
1.533900 22
1.534500 48
1.534500 69
1.538000 81
1.539900 2
1.540400 60
1.548700 41
1.549100 51
1.552600 50
1.555900 15
1.556600 85
1.557800 19
1.558500 96
1.558900 22
1.560700 42
1.562100 21
1.563800 5
1.564200 29
1.566100 67
1.566600 11
1.570600 42
1.578700 78
1.579600 32
1.583600 82
1.591200 69
1.606000 64
1.607300 1
1.607300 99
1.610600 48
1.618200 77
1.618400 22
1.618500 12
1.625100 72
1.626600 79
1.633700 47
1.634200 45
1.636300 60
1.637100 48
1.637300 53
1.640100 99
1.640200 34
1.643200 70
1.646500 91
1.652000 23
1.654300 84
1.660200 63
1.661800 23
1.664300 36
1.665300 59
1.671000 88
1.672800 90
1.673400 18
1.674000 49
1.674300 81
1.674500 94
1.676300 47
1.686800 8
1.687000 41
1.692400 54
1.692500 69
1.693300 30
1.693700 98
1.697400 72
1.698700 14
1.700000 14
1.700200 78
1.702700 60
1.703200 47
1.706700 85
1.710600 60
1.719000 67
1.721500 51
1.722700 8
1.724400 44
1.727300 73
1.736000 37
1.737300 40
1.739200 30
1.740200 80
1.740800 21
1.742800 62
1.744100 15
1.747400 77
1.751300 55
1.757600 37
1.757900 91
1.762100 69
1.762300 85
1.762500 20
1.766400 54
1.767100 78
1.768000 9
1.773900 69
1.774100 71
1.775400 61
1.777000 36
1.777400 68
1.778200 49
1.778300 19
1.780500 77
1.786400 75
1.787000 80
1.788100 24
1.789000 31
1.790200 94
1.791900 19
1.791900 21
1.793200 11
1.793300 81
1.794600 57
1.794800 20
1.795200 20
1.795300 70
1.796500 66
1.798100 88
1.798800 66
1.801100 3
1.801300 86
1.802000 45
1.804900 57
1.807200 7
1.808100 44
1.810300 73
1.810400 24
1.811000 95
1.811400 8
1.814300 91
1.814900 45
1.816400 25
1.816700 44
1.819900 18
1.820100 72
1.820400 0
1.821500 27
1.823900 23
1.824000 21
1.824000 48
1.824800 98
1.826100 72
1.827300 11
1.828500 78
1.829100 3
1.831100 85
1.832200 37
1.834400 11
1.834400 98
1.835900 36
1.838200 87
1.839800 13
1.843400 12
1.843600 0
1.844500 1
1.846400 63
1.847200 55
1.850600 22
1.857500 48
1.862500 41
1.863300 43
1.866300 78
1.868300 14
1.868800 26
1.873600 31
1.874200 16
1.876700 58
1.882500 2
1.886700 17
1.887100 54
1.887200 94
1.893500 8
1.894900 45
1.895700 18
1.895800 71
1.897800 89
1.898600 86
1.899100 74
1.899900 38
1.903800 85
1.903900 52
1.904100 90
1.905400 78
1.906700 84
1.908500 8
1.912200 79
1.915400 77
1.916000 63
1.921100 77
1.922000 30
1.929600 24
1.932200 51
1.932200 56
1.943800 28
1.946800 2
1.948700 28
1.951300 28
1.951700 28
1.952700 45
1.954200 7
1.956700 47
1.958600 14
1.962500 23
1.963800 45
1.971700 78
1.972100 49
1.972600 69
1.976500 54
1.982000 18
1.984800 57
1.991900 37
1.995000 54
1.996400 50
1.996800 40
1.997500 60
1.998500 65
1.998600 64
2.003200 93
2.008800 66
2.009300 79
2.009500 30
2.015800 36
2.021700 39
2.021800 29
2.022800 45
2.023700 34
2.023900 6
2.024600 89
2.024900 46
2.025400 60
2.025500 90
2.031600 49
2.034300 98
2.034600 66
2.035200 62
2.040300 70
2.040700 22
2.041100 80
2.042700 67
2.043000 55
2.045600 53
2.048100 90
2.052600 52
2.054200 67
2.055800 61
2.056400 74
2.057900 7
2.064900 60
2.067300 35
2.067700 75
2.070500 49
2.072400 0
2.072600 18
2.072900 38
2.073400 80
2.073600 14
2.074300 81
2.075300 83
2.075400 95
2.076000 14
2.077500 60
2.079700 38
2.084000 57
2.085800 47
2.086700 94
2.088000 81
2.089800 69
2.089900 38
2.090600 48
2.090600 69
2.091200 43
2.093400 61
2.096700 80
2.098900 79
2.099400 20
2.100900 9
2.102000 79
2.102300 98
2.102900 95
2.103600 33
2.106600 47
2.106900 69
2.107000 61
2.113800 18
2.114300 87
2.114700 65
2.118400 72
2.119200 88
2.124000 18
2.124000 85
2.124600 15
2.127000 8
2.128000 15
2.129300 28
2.129600 20
2.130100 52
2.130400 16
2.131200 71
2.131800 24
2.131900 7
2.134200 86
2.134700 53
2.135900 28
2.142700 36
2.144500 74
2.145000 94
2.145200 86
2.147200 43
2.147200 53
2.155100 85
2.158500 75
2.159900 77
2.160900 22
2.164100 22
2.170300 1
2.171200 98
2.172500 61
2.172900 65
2.176800 54
2.177400 8
2.181300 42
2.182600 40
2.184300 31
2.184600 18
2.184900 46
2.191700 55
2.193900 15
2.196900 11
2.200900 22
2.202100 31
2.213300 4
2.217700 67
2.218600 60
2.219400 29
2.219500 1
2.221000 85
2.221500 90
2.221600 82
2.227300 54
2.232700 14
2.233000 42
2.235200 95
2.237800 89
2.243000 3
2.245800 9
2.246600 23
2.247500 51
2.248300 6
2.249800 80
2.249800 89
2.251800 11
2.252700 96
2.252900 56
2.260200 27
2.260400 8
2.260500 49
2.264700 50
2.265400 15
2.267600 73
2.267700 23
2.268200 2
2.268400 10
2.268700 47
2.273800 66
2.273900 87
2.274600 60
2.274900 85
2.275600 87
2.276000 56
2.278900 12
2.279200 69
2.280300 74
2.283300 88
2.286600 25
2.289600 11
2.290000 7
2.291300 91
2.291500 64
2.297900 60
2.300400 11
2.302900 58
2.304600 90
2.306800 26
2.318500 22
2.321800 77
2.322700 15
2.324600 19
2.325200 13
2.327200 27
2.330200 68
2.330800 45
2.331400 88
2.331500 48
2.333000 50
2.333300 89
2.334200 19
2.334700 70
2.335800 94
2.337400 26
2.338400 43
2.338600 5
2.339000 96
2.339500 18
2.351900 4
2.352100 96
2.358500 18
2.359600 48
2.360000 35
2.360500 13
2.361200 44
2.362000 23
2.365000 54
2.365100 27
2.366500 43
2.367400 90
2.367500 71
2.368100 61
2.368500 73
2.369100 39
2.372000 19
2.374900 54
2.377000 98
2.386800 51
2.388200 33
2.391000 76
2.392400 51
2.392900 52
2.395300 13
2.395900 81
2.396300 52
2.396900 14
2.397300 93
2.401300 45
2.404100 94
2.412800 57
2.414300 35
2.418400 25
2.420100 43
2.421400 8
2.421900 80
2.422400 39
2.423400 4
2.423600 58
2.432700 83
2.434300 66
2.436000 15
2.438200 20
2.441600 76
2.443000 21
2.443200 53
2.444500 49
2.447100 8
2.448800 20
2.449000 46
2.452500 58
2.452600 72
2.454500 82
2.456700 70
2.457200 77
2.458800 90
2.460200 77
2.461800 65
2.462300 43
2.463000 35
2.464500 46
2.465500 52
2.468000 60
2.468600 0
2.469300 97
2.469700 44
2.472300 98
2.473600 70
2.473900 60
2.476900 17
2.479700 49
2.480000 62
2.481100 1
2.484700 46
2.486300 74
2.488200 25
2.489800 71
2.492300 2
2.493000 87
2.493600 8
2.500200 67
2.503900 55
2.504200 44
2.505300 83
2.508300 86
2.510100 99
2.511400 37
2.512600 83
2.513400 0
2.514600 55
2.515700 71
2.516700 58
2.516900 44
2.519100 86
2.520200 92
2.520300 62
2.521200 35
2.522100 75
2.523300 24
2.524900 53
2.525000 96
2.532700 36
2.534900 56
2.536900 71
2.537000 84
2.537500 65
2.537900 49
2.539600 4
2.541100 23
2.544200 70
2.545200 87
2.551900 20
2.552700 72
2.554700 33
2.555500 44
2.556900 58
2.559700 3
2.561200 97
2.561900 0
2.563600 41
2.564500 82
2.566100 13
2.566600 40
2.568300 53
2.573200 35
2.578300 12
2.578600 81
2.581900 50
2.585200 60
2.590900 66
2.592100 40
2.592700 81
2.594300 36
2.595200 91
2.595900 88
2.596600 17
2.597000 68
2.598400 72
2.598700 77
2.601700 89
2.602600 76
2.607800 99
2.608000 20
2.608000 24
2.608200 70
2.610900 37
2.611600 47
2.613700 34
2.615200 17
2.616200 13
2.620300 53
2.621000 56
2.621200 46
2.621400 52
2.629900 78
2.632300 75
2.633700 76
2.636600 26
2.638900 70
2.639000 72
2.639500 28
2.639700 6
2.640100 60
2.640500 37
2.642000 78
2.645300 20
2.648500 49
2.649900 96
2.651000 3
2.651900 92
2.652000 79
2.653700 35
2.653800 40
2.654000 90
2.656300 34
2.656500 0
2.656500 71
2.659000 95
2.660200 21
2.664800 44
2.670500 9
2.673000 97
2.674000 47
2.675300 8
2.680300 21
2.682200 42
2.689300 7
2.691400 52
2.696500 70
2.700200 26
2.701000 56
2.703800 1
2.704200 51
2.705300 99
2.705600 47
2.705900 69
2.708800 40
2.711900 69
2.712000 92
2.715000 93
2.717700 13
2.718500 26
2.718500 80
2.719500 26
2.721100 71
2.721700 81
2.723300 50
2.728600 51
2.730900 23
2.734700 3
2.735600 51
2.735900 12
2.736500 27
2.737900 38
2.739000 66
2.742400 73
2.742600 70
2.743100 30
2.743300 85
2.743600 12
2.749300 61
2.749800 44
2.752300 71
2.753100 38
2.754500 73
2.755000 94
2.756100 30
2.758200 9
2.759300 56
2.759500 70
2.759600 6
2.759900 16
2.764200 99
2.765400 69
2.770800 6
2.771600 33
2.773000 70
2.777400 94
2.780000 97
2.782400 10
2.784100 35
2.785300 90
2.786800 29
2.792400 66
2.795000 76
2.795700 17
2.800600 70
2.803400 95
2.804500 47
2.809900 1
2.810200 82
2.810800 57
2.811500 13
2.813600 7
2.814400 32
2.815600 23
2.819000 53
2.819100 49
2.820200 38
2.821700 85
2.822300 95
2.823300 46
2.823600 10
2.838100 72
2.840100 68
2.841000 82
2.849200 5
2.852000 95
2.852400 58
2.855300 77
2.857100 30
2.857300 68
2.859600 80
2.860100 9
2.862300 72
2.865200 65
2.865600 73
2.866600 65
2.868200 72
2.869200 90
2.869900 48
2.873700 86
2.874300 73
2.876700 79
2.878200 77
2.878300 36
2.879600 77
2.882900 68
2.883300 27
2.883300 72
2.886700 32
2.889600 0
2.892000 99
2.893800 80
2.895000 0
2.895100 67
2.895100 73
2.897300 13
2.897300 74
2.898200 53
2.899900 91
2.903100 80
2.906400 38
2.907800 32
2.908600 6
2.911600 96
2.914800 2
2.916700 44
2.917700 93
2.920400 81
2.920600 70
2.920800 80
2.926400 36
2.927100 79
2.929200 99
2.930200 91
2.930900 5
2.934000 62
2.934800 0
2.937900 88
2.938900 95
2.940100 88
2.941000 35
2.941000 49
2.942500 94
2.945600 52
2.947200 9
2.948900 38
2.949900 26
2.950000 30
2.952400 76
2.957700 75
2.960500 13
2.961100 42
2.964600 56
2.965700 39
2.966400 96
2.966900 0
2.967100 26
2.967500 75
2.972100 6
2.974000 54
2.976000 10
2.977700 34
2.980300 24
2.986900 46
2.987200 16
2.989600 24
2.989800 14
2.991300 82
2.998600 80
2.999600 35
3.005200 88
3.005600 83
3.007800 25
3.008400 5
3.010300 70
3.012600 50
3.013500 89
3.015300 8
3.017500 41
3.022700 0
3.022700 67
3.030500 99
3.032500 48
3.033500 83
3.034200 90
3.036600 99
3.038100 95
3.038700 94
3.038800 74
3.039600 4
3.040500 57
3.042400 33
3.046100 48
3.047600 48
3.049800 53
3.050200 6
3.053100 32
3.064600 62
3.066600 4
3.070200 60
3.070900 45
3.071700 81
3.076000 33
3.078900 80
3.080700 5
3.082200 0
3.084300 49
3.084900 41
3.087000 77
3.088700 78
3.089400 98
3.091100 16
3.092700 86
3.093500 90
3.096300 72
3.096500 43
3.096800 59
3.100200 62
3.100900 21
3.101600 84
3.110000 67
3.112100 0
3.112100 83
3.118700 60
3.120200 29
3.122000 32
3.122800 92
3.125700 66
3.127700 2
3.128500 16
3.132300 77
3.132400 27
3.133100 54
3.137400 67
3.137800 90
3.141500 99
3.142500 30
3.145500 60
3.145900 32
3.146000 12
3.146200 59
3.147100 73
3.156700 38
3.158600 44
3.159500 97
3.159600 81
3.159800 81
3.162000 7
3.164500 18
3.164900 18
3.164900 51
3.168800 15
3.170200 75
3.170800 54
3.171200 53
3.173900 32
3.176500 96
3.179400 79
3.180000 94
3.181800 28
3.182500 69
3.183500 24
3.185500 88
3.188100 69
3.201400 0
3.202900 93
3.203800 39
3.204900 75
3.212100 88
3.212300 62
3.212800 77
3.214100 90
3.223600 56
3.226000 81
3.227000 35
3.229100 26
3.231100 99
3.238300 45
3.238300 76
3.239900 11
3.241100 90
3.241500 33
3.242000 93
3.242900 98
3.245000 49
3.250100 92
3.250600 26
3.251800 7
3.252300 34
3.255700 65
3.255800 73
3.258600 3
3.258600 26
3.260100 8
3.262600 12
3.262700 4
3.265400 95
3.265700 54
3.267200 40
3.268600 85
3.268900 48
3.275100 53
3.276400 11
3.276600 82
3.276700 92
3.278600 24
3.279300 49
3.280000 30
3.282800 31
3.283900 6
3.284000 8
3.287100 31
3.290500 83
3.290900 35
3.291300 44
3.291800 47
3.294000 66
3.294100 84
3.294400 3
3.296900 91
3.297300 18
3.299200 15
3.299900 41
3.300200 50
3.301700 27
3.306900 14
3.307200 16
3.310000 40
3.311000 80
3.318300 14
3.319700 73
3.319800 78
3.322400 12
3.322600 26
3.323200 26
3.323400 99
3.324600 20
3.325100 81
3.328400 57
3.330700 16
3.331100 36
3.334400 20
3.337800 48
3.340300 91
3.341200 30
3.342300 29
3.343100 73
3.343200 1
3.343900 62
3.351000 4
3.351700 15
3.355200 32
3.355400 35
3.358000 83
3.358200 61
3.360700 93
3.361800 4
3.369200 51
3.376600 84
3.377700 70
3.380600 68
3.382400 97
3.383700 16
3.383800 38
3.384400 13
3.385500 53
3.388400 55
3.390600 29
3.395500 25
3.397300 33
3.398100 32
3.399500 0
3.400500 42
3.400600 61
3.410900 48
3.411100 66
3.413800 39
3.415000 57
3.417400 80
3.418600 81
3.419800 10
3.421200 79
3.421700 73
3.425300 73
3.427000 60
3.427600 56
3.428400 63
3.428600 50
3.433600 40
3.438400 5
3.439000 12
3.443600 71
3.446500 99
3.448800 78
3.450800 93
3.454600 43
3.455100 29
3.456600 71
3.456600 91
3.463600 55
3.464000 36
3.465600 22
3.466400 44
3.470100 73
3.470900 17
3.472200 17
3.475800 56
3.476500 56
3.477600 83
3.477800 50
3.478200 86
3.480600 46
3.484300 50
3.486500 46
3.487500 10
3.487500 68
3.488200 84
3.490300 4
3.491300 51
3.492500 50
3.494800 60
3.495200 83
3.495600 43
3.499600 27
