0.000200 15
0.000200 71
0.003600 89
0.005100 57
0.005700 96
0.006200 73
0.010100 22
0.012100 17
0.013700 55
0.015600 37
0.022800 41
0.026300 61
0.028000 70
0.034400 13
0.035500 84
0.037200 94
0.038100 76
0.038300 39
0.042000 20
0.044600 14
0.045000 42
0.045200 80
0.047800 13
0.047900 37
0.049400 59
0.055200 45
0.057200 24
0.059300 45
0.062200 44
0.062400 88
0.064900 78
0.066700 22
0.069100 57
0.069200 65
0.069500 56
0.071000 6
0.074400 51
0.074900 32
0.075600 74
0.076600 97
0.080400 87
0.080500 78
0.080900 83
0.086900 1
0.087500 3
0.087900 45
0.088200 43
0.089400 29
0.095200 33
0.095500 49
0.097400 6
0.098800 53
0.099700 22
0.099900 8
0.103200 65
0.105500 21
0.107300 37
0.108900 29
0.111400 86
0.115000 68
0.115100 73
0.124500 46
0.127600 70
0.128600 39
0.128900 98
0.131900 79
0.133000 88
0.136900 68
0.142700 47
0.143600 20
0.144900 11
0.146300 16
0.148400 98
0.150500 89
0.150600 85
0.151700 45
0.155800 26
0.156700 87
0.160200 41
0.164700 27
0.164800 6
0.165100 22
0.165700 68
0.166400 99
0.167000 20
0.167100 29
0.167800 13
0.168700 7
0.170800 98
0.171300 38
0.173400 87
0.175800 1
0.178900 37
0.180400 33
0.183100 14
0.185700 62
0.187100 8
0.188600 51
0.189000 67
0.190500 5
0.193200 43
0.196000 91
0.196300 54
0.200500 16
0.200900 5
0.206400 46
0.207600 72
0.207900 45
0.210200 22
0.210900 17
0.212100 62
0.212800 75
0.212900 85
0.223600 47
0.226100 3
0.226200 83
0.228500 86
0.228600 55
0.228800 90
0.229000 44
0.229900 28
0.231100 95
0.231400 7
0.232900 72
0.234900 14
0.236300 2
0.238100 10
0.243100 29
0.243400 48
0.243500 39
0.246100 18
0.251200 72
0.251900 68
0.252000 24
0.254800 2
0.254900 44
0.255100 14
0.257300 83
0.258000 42
0.259900 25
0.260700 54
0.263200 20
0.265400 37
0.267500 73
0.268400 33
0.269900 21
0.270500 7
0.272500 33
0.283500 93
0.283700 86
0.283700 94
0.287000 23
0.289100 4
0.290200 80
0.290300 0
0.291900 1
0.296700 31
0.298100 18
0.299800 21
0.305200 83
0.309500 14
0.311100 6
0.312000 67
0.315600 93
0.319100 88
0.319900 63
0.323500 98
0.324500 68
0.326900 53
0.327400 97
0.329300 59
0.334900 94
0.336200 19
0.336800 50
0.338200 96
0.339200 60
0.340100 76
0.341500 98
0.343100 49
0.349000 53
0.349700 77
0.349900 6
0.351600 66
0.353300 75
0.353800 32
0.354800 10
0.355100 71
0.356000 85
0.357600 85
0.357700 82
0.358200 58
0.359000 29
0.362800 51
0.365300 45
0.367100 34
0.377300 39
0.383200 4
0.383200 69
0.383800 66
0.384600 25
0.385500 53
0.390900 46
0.398000 99
0.398100 60
0.401400 4
0.402000 26
0.402000 82
0.405300 44
0.405600 94
0.408100 69
0.408500 17
0.410500 24
0.412300 35
0.417100 46
0.422200 33
0.422600 57
0.431200 98
0.432700 54
0.434800 59
0.438000 17
0.442900 75
0.444000 53
0.444500 12
0.448500 97
0.454100 51
0.454300 46
0.454700 34
0.460500 22
0.461700 19
0.462300 94
0.463900 3
0.465600 63
0.466100 89
0.468700 89
0.468900 45
0.469800 32
0.470400 43
0.475000 79
0.476400 16
0.476800 3
0.477000 36
0.480200 64
0.481000 69
0.481700 4
0.482500 27
0.484700 62
0.485400 57
0.488000 90
0.488200 34
0.489200 37
0.489700 65
0.491700 67
0.492900 63
0.494900 56
0.495900 70
0.496600 2
0.502200 44
0.502700 87
0.507500 27
0.512300 91
0.512400 5
0.513200 66
0.513600 22
0.513900 15
0.515100 49
0.516000 35
0.517600 86
0.524900 11
0.524900 91
0.527000 40
0.528100 26
0.529600 84
0.529700 74
0.530800 94
0.538100 54
0.539300 9
0.543500 40
0.546100 75
0.546400 32
0.547400 17
0.549200 97
0.549300 89
0.553600 57
0.553800 29
0.553900 39
0.554400 86
0.556800 86
0.559300 34
0.560900 82
0.562300 31
0.565800 56
0.571100 93
0.571900 5
0.572800 94
0.573300 79
0.575600 83
0.577100 75
0.577700 4
0.581000 38
0.583500 15
0.585500 46
0.586000 86
0.587700 70
0.587900 25
0.589000 12
0.589600 38
0.592600 54
0.594500 18
0.601200 36
0.604000 27
0.604200 12
0.605000 10
0.605200 16
0.605700 49
0.606700 19
0.612000 21
0.612400 59
0.615500 8
0.618600 98
0.618700 42
0.619200 33
0.620000 21
0.622200 38
0.623600 70
0.623800 5
0.623900 34
0.624500 2
0.632200 85
0.634700 58
0.636600 79
0.636800 38
0.637100 74
0.637300 75
0.639200 46
0.639700 85
0.640100 91
0.646100 77
0.646400 0
0.649100 36
0.649200 88
0.649600 56
0.650300 80
0.654400 27
0.655000 74
0.657100 62
0.657500 22
0.660600 61
0.661000 80
0.662600 4
0.663100 12
0.665000 71
0.667000 18
0.673000 94
0.673600 24
0.677200 43
0.678000 53
0.680700 65
0.682700 76
0.682900 45
0.683300 34
0.683700 41
0.684100 68
0.696300 58
0.697800 59
0.701200 92
0.701700 16
0.702200 71
0.703800 77
0.707800 2
0.708600 97
0.709600 27
0.717100 6
0.719700 61
0.719900 91
0.720000 2
0.721000 69
0.724800 4
0.725700 76
0.729500 98
0.729800 79
0.732100 96
0.738300 0
0.738400 58
0.740200 53
0.742900 41
0.748000 28
0.751000 41
0.752400 28
0.753100 80
0.753500 43
0.753700 24
0.754800 58
0.759400 1
0.759500 33
0.760200 7
0.760400 83
0.760700 89
0.760900 72
0.762800 0
0.763100 10
0.763700 31
0.764000 68
0.766400 41
0.769900 64
0.770400 30
0.772000 23
0.778100 77
0.779000 81
0.781100 25
0.781200 28
0.784400 62
0.785100 42
0.786900 31
0.791200 17
0.791800 32
0.797000 58
0.798900 82
0.800500 15
0.800700 30
0.801000 71
0.801000 98
0.802000 42
0.806400 12
0.807000 5
0.807900 81
0.810600 6
0.811200 65
0.812300 53
0.813800 6
0.814700 71
0.818100 69
0.823000 81
0.829300 67
0.832300 25
0.839400 32
0.839600 16
0.840200 70
0.842800 99
0.846100 92
0.847300 7
0.850700 43
0.856900 98
0.859100 41
0.861200 87
0.861400 24
0.861600 72
0.862300 81
0.865800 4
0.867800 67
0.867900 15
0.869400 51
0.874100 36
0.874100 74
0.874800 94
0.877400 7
0.877500 60
0.886500 85
0.886600 13
0.888700 58
0.889300 86
0.891400 54
0.895800 92
0.896600 35
0.897500 93
0.899500 9
0.900500 97
0.902300 70
0.904200 54
0.909100 73
0.909200 9
0.910000 12
0.910100 83
0.912500 28
0.914000 94
0.914100 7
0.918300 36
0.920800 15
0.921800 15
0.922600 77
0.923500 3
0.930200 86
0.936100 90
0.941100 49
0.944100 82
0.945000 98
0.954200 76
0.954800 56
0.958200 77
0.960000 77
0.963200 38
0.967600 59
0.969400 85
0.972200 36
0.972800 64
0.975200 90
0.976900 65
0.978600 79
0.979400 14
0.981100 85
0.982700 51
0.991100 80
0.991800 15
0.994900 81
0.995500 27
0.999600 36
1.003700 31
1.004900 15
1.006600 38
1.014500 44
1.015000 80
1.018900 34
1.019300 0
1.021500 62
1.024800 61
1.024900 10
1.024900 65
1.026200 74
1.031700 41
1.033000 10
1.033700 88
1.034700 75
1.035000 81
1.035500 99
1.035800 59
1.035900 29
1.038400 89
1.040300 96
1.041300 88
1.041700 40
1.042700 85
1.046200 71
1.046200 78
1.046900 57
1.049000 75
1.049500 43
1.049600 70
1.050300 66
1.052200 40
1.052800 79
1.057200 76
1.060400 63
1.068100 56
1.068400 25
1.069500 31
1.070500 99
1.071400 33
1.072500 54
1.073200 11
1.074700 96
1.080200 7
1.082500 63
1.084000 78
1.084500 30
1.089000 44
1.094500 42
1.094800 28
1.094800 36
1.095200 74
1.097600 68
1.098000 56
1.099000 23
1.100100 86
1.100300 78
1.103700 55
1.104200 55
1.104900 49
1.105900 49
1.106000 6
1.110500 54
1.110600 86
1.111000 84
1.115400 33
1.115900 45
1.116400 32
1.117800 40
1.119200 85
1.121200 45
1.124000 65
1.124700 57
1.126800 83
1.129200 78
1.131600 97
1.132500 79
1.133600 84
1.134800 81
1.135800 90
1.136700 0
1.138800 71
1.140100 81
1.140200 74
1.141900 51
1.145300 74
1.145300 91
1.147100 21
1.149500 17
1.153100 49
1.158100 51
1.158400 44
1.159900 99
1.160900 84
1.161200 40
1.164400 36
1.166400 23
1.168600 30
1.172300 76
1.176500 4
1.177300 33
1.178300 84
1.184600 28
1.186200 14
1.189600 48
1.191400 5
1.191500 93
1.192500 76
1.192600 86
1.193700 97
1.195800 19
1.197000 62
1.200700 24
1.203900 17
1.210300 37
1.211200 91
1.212400 70
1.213600 44
1.216300 68
1.217300 65
1.219600 95
1.224500 39
1.224800 20
1.226000 60
1.226400 65
1.226700 6
1.226900 15
1.227100 21
1.228800 45
1.229800 81
1.231800 40
1.237000 1
1.239800 97
1.245300 65
1.245800 60
1.245900 15
1.246200 22
1.248200 7
1.250100 51
1.252700 66
1.253700 7
1.256900 81
1.259300 52
1.268100 32
1.269000 54
1.271000 34
1.271000 58
1.271800 38
1.271900 94
1.272300 8
1.273600 65
1.274400 99
1.279800 21
1.280500 3
1.283300 39
1.285900 14
1.287900 61
1.289100 23
1.291300 72
1.291500 6
1.294200 52
1.295500 14
1.295700 15
1.299700 21
1.300000 99
1.301000 41
1.301000 73
1.301600 95
1.302000 87
1.303100 89
1.311200 45
1.313900 38
1.315000 94
1.319000 36
1.320700 69
1.321500 34
1.325800 82
1.326600 5
1.329500 36
1.332300 82
1.333800 23
1.334400 30
1.335700 29
1.337300 77
1.341600 16
1.342800 60
1.343600 64
1.347000 99
1.347700 83
1.351100 40
1.353600 38
1.357500 22
1.357500 45
1.357600 92
1.358100 38
1.358800 35
1.359000 99
1.361300 16
1.371000 15
1.372200 98
1.375600 70
1.376100 91
1.378400 79
1.378800 28
1.379200 25
1.382800 23
1.384100 28
1.385700 22
1.386000 23
1.387200 68
1.387300 90
1.388900 15
1.389700 42
1.397100 37
1.397100 77
1.398600 33
1.402000 44
1.406000 43
1.408400 55
1.408400 81
1.409200 38
1.413700 73
1.416900 52
1.423700 47
1.424000 19
1.427300 31
1.427900 11
1.427900 46
1.429000 98
1.431800 98
1.434200 33
1.435500 70
1.439200 1
1.441000 97
1.441200 53
1.443300 16
1.444000 98
1.446700 41
1.454300 40
1.456700 82
1.462600 72
1.463900 77
1.464500 41
1.468200 54
1.470000 99
1.473000 79
1.477600 26
1.480500 22
1.481400 33
1.482000 88
1.483100 63
1.484200 58
1.485000 44
1.485800 94
1.487100 48
1.488200 45
1.488500 49
1.489900 53
1.492000 79
1.492500 45
1.492800 74
1.493100 5
1.495200 51
1.495900 33
1.497400 96
1.503600 31
1.504300 71
1.507000 76
1.508300 79
1.512500 67
1.515800 93
1.518000 28
1.518300 89
1.522300 15
1.525800 35
1.533000 56
1.534400 37
1.534700 85
1.540400 13
1.543800 45
1.546100 61
1.546300 27
1.546800 27
1.549200 77
1.551100 21
1.552100 19
1.553400 69
1.553500 72
1.557500 80
1.560200 55
1.560300 61
1.562900 84
1.563100 31
1.564000 30
1.568400 94
1.569600 62
1.577700 23
1.579900 1
1.581700 56
1.583000 36
1.584700 7
1.586500 26
1.586800 2
1.591000 62
1.592900 6
1.594700 74
1.595700 46
1.596400 77
1.600700 49
1.601500 66
1.601600 83
1.602000 86
1.603800 22
1.606300 42
1.607500 93
1.608400 81
1.608800 45
1.609200 47
1.611000 97
1.611200 46
1.611500 79
1.613000 4
1.614900 13
1.616300 27
1.616500 80
1.619300 29
1.620600 13
1.620600 40
1.620900 95
1.626000 83
1.626100 85
1.633500 86
1.637700 35
1.644900 87
1.645300 34
1.650800 24
1.653300 41
1.660600 20
1.667100 19
1.671200 1
1.671700 56
1.673300 63
1.677400 37
1.678000 14
1.678000 48
1.678200 83
1.682300 50
1.683700 25
1.684200 83
1.688100 32
1.690300 46
1.692200 86
1.693500 37
1.694800 94
1.695900 91
1.696700 62
1.697600 16
1.699700 99
1.702700 29
1.708000 96
1.709700 31
1.710000 16
1.716400 61
1.717200 98
1.719600 95
1.719900 97
1.720900 2
1.721700 20
1.726700 47
1.728100 71
1.736100 3
1.736200 51
1.738100 12
1.739700 14
1.740200 97
1.740700 86
1.744100 98
1.746000 43
1.747800 20
1.751100 16
1.752000 15
1.752300 71
1.753100 95
1.759000 95
1.760600 78
1.760600 84
1.765200 51
1.767300 56
1.768700 28
1.769900 51
1.770000 42
1.770000 93
1.771700 25
1.771800 25
1.772100 75
1.774000 79
1.775200 10
1.775600 64
1.777800 41
1.781400 35
1.781900 82
1.783700 6
1.786800 83
1.787000 79
1.788400 47
1.789400 37
1.790000 3
1.796000 8
1.796300 38
1.802700 41
1.802800 63
1.804100 98
1.804300 9
1.805900 20
1.815700 61
1.816500 55
1.819900 30
1.820500 7
1.823000 33
1.823100 84
1.829200 95
1.831800 21
1.833600 98
1.833700 84
1.837700 56
1.838200 58
1.838700 40
1.839400 96
1.841700 40
1.842100 99
1.843700 4
1.848500 30
1.848700 94
1.850700 52
1.852300 99
1.852400 7
1.852700 68
1.852900 80
1.853300 25
1.856200 69
1.859200 12
1.859400 12
1.859800 75
1.872100 96
1.875700 86
1.876600 70
1.876900 60
1.877300 66
1.880300 24
1.881900 57
1.883300 19
1.887200 15
1.890800 0
1.893600 50
1.897500 56
1.900800 65
1.900900 59
1.905900 76
1.907700 74
1.908800 50
1.909900 74
1.910000 59
1.910200 79
1.912200 18
1.913000 18
1.914200 95
1.917400 17
1.921500 86
1.924800 78
1.928000 63
1.931000 94
1.931800 55
1.931900 30
1.932200 40
1.932800 34
1.933800 0
1.939300 28
1.943800 46
1.944500 5
1.952500 81
1.953300 28
1.957600 96
1.959600 4
1.961200 57
1.963900 26
1.966500 3
1.966700 90
1.967200 23
1.970600 22
1.972900 78
1.983500 51
1.985500 16
1.989600 7
1.993100 24
1.994400 65
1.995000 44
1.995700 18
1.997300 67
2.000000 55
2.003900 80
2.005000 24
2.006800 43
2.007100 35
2.009900 81
2.011000 3
2.011300 50
2.013900 51
2.016000 21
2.016700 38
2.016900 66
2.017600 52
2.020000 55
2.021200 9
2.021700 9
2.027000 78
2.028100 83
2.029300 2
2.031100 63
2.033800 99
2.034200 63
2.038000 29
2.038500 79
2.041400 11
2.042500 45
2.045100 57
2.045800 13
2.050000 3
2.050600 76
2.051700 18
2.052300 9
2.055800 21
2.056000 60
2.061900 94
2.064500 18
2.067600 85
2.068600 59
2.072300 99
2.073400 34
2.077300 0
2.078100 84
2.078700 52
2.079700 92
2.080100 41
2.085800 25
2.087000 71
2.090600 79
2.091400 24
2.093000 57
2.093900 31
2.097600 26
2.098100 44
2.100600 39
2.103400 81
2.104200 81
2.105600 52
2.109400 4
2.110900 88
2.114700 76
2.118400 7
2.118600 20
2.118600 63
2.121900 38
2.123800 33
2.124300 72
2.127900 50
2.131200 11
2.131900 21
2.134300 12
2.135100 67
2.136700 28
2.137000 47
2.139700 45
2.143900 77
2.144500 12
2.148100 86
2.148500 55
2.151200 0
2.157600 79
2.158100 57
2.158600 31
2.158600 45
2.161900 72
2.162700 62
2.172000 28
2.172600 84
2.173300 57
2.175200 82
2.175700 25
2.175800 23
2.179400 17
2.180200 30
2.180900 58
2.181500 79
2.185200 82
2.188700 0
2.194500 45
2.201600 62
2.207100 59
2.208500 71
2.209200 20
2.212200 65
2.214800 99
2.215100 12
2.215700 10
2.216000 28
2.217000 2
2.217100 24
2.217100 91
2.219600 86
2.220000 90
2.222100 79
2.222600 17
2.223000 70
2.224300 75
2.224300 93
2.226800 50
2.228200 52
2.228400 98
2.234100 43
2.235000 69
2.235600 16
2.239200 51
2.239400 46
2.242400 63
2.243900 81
2.244200 19
2.246300 86
2.252500 66
2.255400 84
2.256400 8
2.256500 52
2.257800 32
2.260100 13
2.262400 64
2.263000 88
2.269700 62
2.269800 91
2.274300 93
2.274400 28
2.275800 6
2.276200 65
2.276300 6
2.279100 15
2.279300 41
2.281100 39
2.282300 72
2.282600 31
2.283600 45
2.284600 89
2.285100 69
2.285800 12
2.291200 32
2.291500 40
2.292900 89
2.293000 42
2.293300 27
2.299900 84
2.300300 63
2.302000 94
2.302100 5
2.302800 36
2.304400 93
2.305100 32
2.305700 85
2.307200 37
2.308200 94
2.309100 84
2.313100 53
2.315500 38
2.317800 76
2.319500 90
2.321800 46
2.324900 69
2.325300 63
2.328800 49
2.335000 53
2.335500 79
2.337800 51
2.338000 80
2.340200 66
2.342400 37
2.342600 17
2.343200 17
2.347300 42
2.348800 31
2.349000 68
2.349300 86
2.351800 64
2.355600 23
2.358400 76
2.360000 72
2.363000 56
2.364100 56
2.365000 49
2.366400 8
2.371300 56
2.376600 58
2.378600 38
2.379300 83
2.379300 87
2.380700 26
2.380700 32
2.384200 67
2.386100 59
2.388000 94
2.389500 70
2.394400 76
2.395300 30
2.397000 86
2.398100 49
2.399300 22
2.400600 85
2.403100 37
2.405400 41
2.405900 9
2.406800 45
2.407000 41
2.410800 39
2.417700 37
2.419200 3
2.421600 14
2.421900 22
2.424200 73
2.431000 37
2.435500 57
2.437100 21
2.443300 86
2.444200 98
2.445700 5
2.445700 19
2.446800 5
2.447100 19
2.447500 93
2.451300 0
2.453900 5
2.453900 22
2.454200 14
2.454500 86
2.456900 91
2.457800 42
2.458700 98
2.458900 6
2.460100 59
2.460500 83
2.466500 80
2.468000 66
2.474500 1
2.477500 16
2.481500 19
2.482700 83
2.486300 47
2.487300 77
2.487500 68
2.488700 36
2.493200 85
2.494300 57
2.495400 45
2.495500 41
2.496000 60
2.496900 22
2.497400 36
2.497900 10
2.498700 72
2.505100 3
2.506700 14
2.508400 76
2.509200 87
2.510300 6
2.512400 44
2.515300 45
2.515900 79
2.524300 51
2.525500 8
2.525900 90
2.527300 86
2.528200 9
2.528200 34
2.528900 16
2.529300 53
2.536300 9
2.536500 93
2.536600 64
2.536900 33
2.537100 40
2.538300 31
2.539400 47
2.539800 53
2.540900 90
2.542200 43
2.547500 8
2.548100 78
2.549700 16
2.551200 28
2.551500 49
2.552400 0
2.554000 72
2.554300 31
2.555200 40
2.558300 2
2.558500 95
2.559100 72
2.560500 84
2.560700 85
2.564400 39
2.564600 82
2.565400 44
2.567000 48
2.568000 68
2.569000 1
2.574600 24
2.576100 40
2.580300 35
2.586200 32
2.587000 52
2.589000 23
2.589800 37
2.590600 91
2.590700 40
2.592000 31
2.592900 88
2.594500 90
2.594600 42
2.595500 19
2.596600 22
2.597800 31
2.598200 36
2.598700 88
2.601700 22
2.602000 33
2.605600 9
2.608600 40
2.615700 64
2.617900 17
2.619700 17
2.622700 42
2.633800 55
2.636400 66
2.639000 97
2.640800 93
2.640900 51
2.643500 93
2.644300 86
2.644800 28
2.644800 49
2.647600 52
2.658100 81
2.662600 40
2.664000 52
2.665200 66
2.665800 68
2.666000 84
2.666200 87
2.666300 63
2.667300 52
2.667400 9
2.668500 18
2.669200 87
2.672300 49
2.675400 2
2.677200 67
2.682800 34
2.683000 36
2.684100 5
2.684300 42
2.684600 45
2.685400 56
2.687500 61
2.688200 58
2.691100 32
2.693500 94
2.694600 48
2.695600 29
2.696900 82
2.703500 46
2.705300 32
2.712400 16
2.712900 22
2.712900 45
2.712900 95
2.714700 50
2.716200 60
2.716700 79
2.717700 56
2.718900 31
2.719400 94
2.722700 37
2.725700 68
2.725900 53
2.726300 41
2.726800 54
2.729200 17
2.730100 77
2.733100 25
2.735100 32
2.736600 63
2.738500 32
2.739400 25
2.739700 4
2.740900 10
2.740900 86
2.741000 97
2.743800 27
2.745600 35
2.747400 76
2.748700 47
2.748800 92
2.749400 48
2.749900 54
2.756200 50
2.756400 4
2.761100 36
2.761400 89
2.762200 2
2.765400 41
2.765500 11
2.766300 93
2.768400 9
2.774400 51
2.774900 16
2.780600 84
2.781300 39
2.790400 33
2.794000 25
2.799600 4
2.802200 53
2.807900 54
2.808700 58
2.808900 40
2.810400 61
2.811000 30
2.812600 66
2.813200 79
2.814900 2
2.816100 37
2.817000 58
2.821200 10
2.823300 64
2.825700 17
2.826600 33
2.829000 97
2.829400 56
2.830300 23
2.831000 56
2.832200 77
2.833100 37
2.833100 47
2.834700 13
2.835200 63
2.835900 22
2.838500 3
2.838900 81
2.846300 71
2.846500 27
2.849900 91
2.850900 26
2.852400 20
2.853100 69
2.856700 59
2.859900 98
2.861100 0
2.861300 58
2.863100 6
2.870100 49
2.872200 36
2.872300 51
2.873400 59
2.876700 1
2.876800 8
2.877900 62
2.880900 51
2.883000 37
2.889800 58
2.890600 57
2.892000 46
2.893800 32
2.895400 5
2.895500 39
2.899100 47
2.903000 2
2.905200 90
2.906100 5
2.909200 68
2.911700 70
2.915700 0
2.917000 9
2.921300 7
2.923100 4
2.923100 15
2.932300 74
2.932600 59
2.939800 51
2.941000 29
2.941800 31
2.943000 31
2.944900 96
2.948200 33
2.949300 55
2.950000 87
2.953500 95
2.958700 21
2.961300 38
2.961800 9
2.963000 69
2.964600 67
2.964800 46
2.966500 85
2.970000 38
2.971000 71
2.971500 98
2.972500 26
2.973600 42
2.974200 27
2.974400 52
2.975100 12
2.975500 35
2.977100 98
2.980900 60
2.989300 82
2.991100 90
2.995900 34
2.997800 51
3.004500 40
3.005800 83
3.006500 25
3.007100 21
3.012400 80
3.014100 79
3.015600 5
3.015600 70
3.016500 17
3.016900 87
3.018700 72
3.023600 90
3.027700 53
3.028500 72
3.029000 49
3.029000 92
3.029300 95
3.030300 90
3.030400 21
3.031700 14
3.033800 64
3.033900 51
3.034300 10
3.039700 25
3.044600 45
3.048800 50
3.051600 98
3.053200 28
3.053900 19
3.055300 41
3.055500 33
3.056000 82
3.056500 20
3.058600 26
3.058600 95
3.062400 29
3.063500 57
3.064700 41
3.065500 5
3.065700 52
3.066800 82
3.067300 74
3.069100 32
3.069100 68
3.072700 86
3.074700 72
3.076000 70
3.076100 22
3.079100 82
3.080900 18
3.081700 71
3.083500 22
3.084400 58
3.085300 49
3.095200 46
3.096500 47
3.098500 94
3.101000 10
3.102900 34
3.104800 31
3.107200 22
3.114900 96
3.116300 9
3.121500 43
3.124600 4
3.125000 83
3.127600 66
3.132200 47
3.133500 44
3.134900 80
3.138400 68
3.139200 55
3.143900 19
3.145100 17
3.145400 76
3.149500 27
3.149900 28
3.152600 1
3.153200 61
3.155600 45
3.158400 91
3.160300 51
3.162300 67
3.162800 23
3.163800 39
3.164300 14
3.164300 47
3.167200 38
3.167800 6
3.168800 20
3.171500 46
3.173300 66
3.174600 61
3.176200 43
3.178300 82
3.183000 25
3.184400 73
3.186900 63
3.189600 90
3.192100 46
3.193000 47
3.193900 52
3.194200 65
3.195500 91
3.202300 59
3.207000 25
3.208700 16
3.209000 12
3.210800 57
3.212000 84
3.212500 34
3.212600 92
3.213300 45
3.219700 89
3.221200 46
3.222200 66
3.225800 20
3.228100 83
3.229000 48
3.231300 43
3.233600 84
3.238400 12
3.240200 57
3.245800 66
3.246900 29
3.247800 58
3.248300 40
3.248600 98
3.249600 31
3.250400 59
3.253100 37
3.257500 27
3.258100 35
3.258200 38
3.258400 50
3.259600 67
3.263600 25
3.265600 58
3.268500 50
3.275100 29
3.276000 84
3.276600 16
3.277200 56
3.279900 87
3.283500 56
3.285700 55
3.287100 89
3.287300 4
3.290700 0
3.291800 7
3.292900 86
3.293000 87
3.293800 68
3.294100 72
3.295700 26
3.297900 48
3.299200 49
3.299700 86
3.300800 79
3.301300 26
3.303200 92
3.313600 33
3.316500 76
3.317800 55
3.318000 72
3.319100 15
3.320200 10
3.322100 3
3.327000 96
3.335900 64
3.336800 27
3.336900 37
3.339200 41
3.340900 18
3.342000 97
3.344800 2
3.348500 24
3.348500 31
3.350500 43
3.351200 18
3.351300 5
3.352500 7
3.357900 14
3.358200 60
3.358400 55
3.360500 78
3.364600 79
3.365200 45
3.365600 36
3.369100 60
3.370700 61
3.373000 19
3.374900 12
3.377800 50
3.378500 66
3.380500 82
3.384300 21
3.386400 36
3.386600 97
3.390400 25
3.393600 55
3.394500 58
3.395600 7
3.397400 82
3.398800 69
3.399400 19
3.399500 24
3.399500 92
3.410800 24
3.412100 39
3.417100 47
3.417100 91
3.418400 23
3.418900 28
3.419400 60
3.421300 5
3.421500 17
3.422800 47
3.425100 69
3.425500 84
3.436700 61
3.439200 41
3.443100 95
3.444800 58
3.445200 72
3.446400 41
3.447800 9
3.451100 71
3.456500 58
3.456800 66
3.458500 61
3.459300 6
3.459500 74
3.462300 53
3.463200 79
3.464100 49
3.465400 26
3.465900 48
3.474000 54
3.476000 78
3.476000 96
3.476400 16
3.476700 70
3.477300 11
3.479300 54
3.481300 93
3.483200 41
3.493500 98
3.495400 90
3.499400 52
3.500500 35
3.503200 44
3.503200 93
3.503900 74
3.505200 40
3.506900 60
3.511200 62
3.513200 66
3.513600 66
3.517100 86
3.518600 19
3.518800 51
3.519900 38
3.521000 54
3.526000 24
3.531000 57
3.533200 65
3.533900 25
3.541500 34
3.542600 29
3.548600 56
3.551300 8
3.559400 38
3.560800 73
3.561700 40
3.562700 62
3.562700 81
3.564900 58
3.565000 1
3.565000 78
3.565900 99
3.567100 22
3.568100 66
3.569400 31
3.570200 64
3.571300 96
3.571900 29
3.574200 18
3.574900 89
3.576500 1
3.578500 33
3.580200 4
3.582000 77
3.582000 94
3.585900 77
3.586400 84
3.586900 40
3.590600 26
3.593900 62
3.595500 34
3.598500 98
3.598800 4
3.605700 33
3.610100 40
3.614500 89
3.617500 61
3.624700 79
3.625600 78
3.626700 53
3.629100 88
3.630400 54
3.630800 93
3.631400 46
3.636800 96
3.641600 96
3.643900 58
3.644000 50
3.645700 95
3.647200 87
3.648100 80
3.649000 93
3.649100 33
3.651000 79
3.651900 40
3.653900 17
3.660200 25
3.660300 93
3.660800 40
3.661200 58
3.662100 26
3.663000 36
3.663500 65
3.666100 75
3.666800 47
3.668000 30
3.676000 37
3.677500 85
3.678400 69
3.678800 73
3.678800 79
3.679000 98
3.683500 71
3.684800 71
3.688500 12
3.688700 15
3.694100 93
3.694300 39
3.696000 15
3.697300 21
3.698000 77
3.698800 2
3.699600 97
3.700100 58
3.703700 42
3.704800 72
3.706500 17
3.711700 41
3.715900 77
3.719400 47
3.722900 62
3.726000 21
3.726200 69
3.726700 14
3.728200 30
3.728300 13
3.730300 62
3.733300 43
3.740000 34
3.743700 37
3.747100 87
3.748400 69
3.748900 16
3.749400 62
3.750200 79
3.750700 90
3.752000 74
3.753000 96
3.753400 34
3.756300 78
3.757600 30
3.759300 19
3.759500 15
3.761100 55
3.761400 35
3.763800 84
3.764600 40
3.769500 4
3.769500 45
3.770300 96
3.771100 88
3.772400 89
3.773200 4
3.773800 61
3.776400 99
3.778300 41
3.779300 92
3.782900 12
3.785600 29
3.788000 3
3.788700 33
3.791200 61
3.798900 55
3.800400 72
3.803700 34
3.805400 44
3.808700 53
3.813000 80
3.814200 55
3.815300 9
3.818800 30
3.824300 19
3.826600 46
3.832100 79
3.834500 19
3.835200 93
3.835800 30
3.837500 57
3.838500 55
3.839400 51
3.839700 86
3.842900 56
3.843500 81
3.845900 94
3.848300 55
3.850400 36
3.851300 14
3.852100 57
3.852800 44
3.855100 45
3.858500 1
3.859000 11
3.859800 54
3.861700 43
3.876800 41
3.876800 60
3.877100 49
3.878700 90
3.879200 32
3.879900 26
3.881500 77
3.882900 74
3.885800 37
3.887700 9
3.887700 59
3.890400 8
3.892100 59
3.893600 38
3.893800 91
3.897000 48
3.897400 45
3.898900 11
3.900200 48
3.900900 4
3.902000 77
3.905600 45
3.905700 57
3.906000 50
3.906000 58
3.906000 98
3.907600 37
3.910900 78
3.921900 15
3.923000 29
3.925200 48
3.925400 27
3.926500 28
3.926800 20
3.927100 61
3.928100 67
3.929000 86
3.931300 63
3.932500 2
3.933400 73
3.938300 57
3.938400 15
3.943000 53
3.950200 40
3.950400 78
3.951900 55
3.955200 7
3.956200 88
3.956900 97
3.958300 28
3.959300 83
3.959400 88
3.959900 81
3.962900 71
3.966800 67
3.967600 71
3.974000 68
3.978700 0
3.980500 74
3.984100 40
3.985300 57
3.985800 95
3.989600 10
3.995300 48
4.001400 45
4.001900 31
4.003300 4
4.004200 84
4.005100 81
4.005500 28
4.007200 85
4.010700 16
4.011100 72
4.011700 43
4.013200 38
4.014000 45
4.015400 77
4.016100 76
4.018000 98
4.018500 2
4.019800 27
4.021500 38
4.026000 11
4.026100 91
4.027800 9
4.031400 51
4.032400 7
4.034900 26
4.037300 34
4.042200 37
4.043300 34
4.044400 54
4.047400 89
4.049300 65
4.049400 55
4.050200 34
4.053800 0
4.054000 28
4.054700 52
4.056200 63
4.056300 17
4.057200 92
4.058100 82
4.059100 12
4.060000 68
4.062900 49
4.065000 71
4.068300 91
4.069400 40
4.070400 31
4.070500 39
4.071700 62
4.073900 81
4.074400 9
4.075700 59
4.079800 1
4.080700 63
4.082500 40
4.082800 85
4.083800 96
4.084300 69
4.086600 67
4.087000 36
4.087400 33
4.088600 43
4.090300 92
4.092400 92
4.093200 0
4.095600 73
4.097100 14
4.097200 14
4.102400 15
4.105500 37
4.108500 49
4.110000 92
4.110300 28
4.110300 56
4.110500 48
4.129600 61
4.131000 3
4.132900 41
4.134100 88
4.137900 70
4.138300 20
4.142400 97
4.143700 61
4.152900 6
4.158400 79
4.163100 91
4.163400 42
4.165300 61
4.166100 60
4.168000 61
4.177800 83
4.178000 29
4.181300 65
4.183600 61
4.184600 11
4.185100 45
4.186000 95
4.191100 98
4.193000 57
4.194000 84
4.195500 87
4.195800 40
4.201700 60
4.202500 61
4.205500 75
4.207300 65
4.213100 52
4.219200 31
4.224100 20
4.228100 86
4.231100 34
4.232200 9
4.238600 92
4.240400 43
4.240500 42
4.247400 59
4.247600 89
4.250600 30
4.253300 23
4.254700 34
4.256500 6
4.259700 85
4.261300 64
4.261500 67
4.262800 86
4.263200 40
4.266200 46
4.272000 58
4.276500 55
4.277200 61
4.278400 64
4.280200 63
4.284700 88
4.289600 24
4.290400 3
4.300300 73
4.303400 16
4.304300 18
4.314400 73
4.315100 84
4.319100 41
4.319700 49
4.322300 69
4.326800 88
4.327400 7
4.331500 99
4.334700 87
4.336200 16
4.336400 94
4.338900 27
4.340100 23
4.341300 56
4.344300 82
4.346000 80
4.346400 42
4.347400 11
4.353300 17
4.355700 53
4.355900 27
4.356400 94
4.358400 26
4.358700 7
4.368400 17
4.370100 21
4.370100 49
4.371300 54
4.371300 87
4.371600 9
4.371600 85
4.372300 49
4.378500 83
4.378800 82
4.381700 19
4.382100 41
4.383200 82
4.385700 84
4.388700 36
4.392200 61
4.396000 28
4.397200 42
4.397500 48
4.400800 41
4.410100 48
4.410200 7
4.412800 45
4.413700 30
4.414000 74
4.414800 61
4.416300 61
4.417500 6
4.419800 24
4.419900 63
4.422200 92
4.422900 99
4.424000 28
4.425300 74
4.429300 39
4.431200 4
4.435400 0
4.435600 40
4.436300 49
4.436600 52
4.437400 30
4.437700 40
4.438500 54
4.438800 83
4.440500 10
4.441000 5
4.441700 85
4.444600 61
4.445500 43
4.447800 67
4.450200 58
4.450700 17
4.457900 56
4.459400 16
4.459900 84
4.461800 41
4.464500 94
4.473700 7
4.476300 30
4.481900 66
4.483500 2
4.489200 48
4.492400 38
4.492600 0
4.494200 79
4.494400 87
4.494700 70
4.497400 44
4.501600 15
4.502200 27
4.502500 29
4.511500 19
4.512800 58
4.516400 35
4.518700 6
4.520900 45
4.521300 14
4.524000 64
4.525000 54
4.526400 90
4.527100 2
4.530200 21
4.531400 94
4.532700 79
4.535600 79
4.536200 81
4.536900 53
4.539000 50
4.543000 1
4.543100 64
4.543700 75
4.544400 1
4.545100 76
4.547100 96
4.549400 5
4.551500 95
4.553200 42
4.557800 73
4.559100 79
4.560700 83
4.562100 39
4.563500 66
4.563900 93
4.567300 12
4.568500 35
4.569300 60
4.570500 79
4.571700 29
4.574400 56
4.574400 71
4.577700 39
4.578700 92
4.583400 14
4.583500 54
4.590500 99
4.591100 11
4.591800 48
4.594000 42
4.595100 79
4.597700 48
4.599100 16
4.599600 32
4.600800 43
4.601000 64
4.601400 14
4.602400 0
4.608000 24
4.608500 14
4.614000 72
4.615300 27
4.619700 43
4.621700 9
4.623300 24
4.630000 86
4.631400 59
4.631500 74
4.632200 13
4.636300 14
4.639300 56
4.641400 15
4.641600 17
4.646200 28
4.651900 2
4.659700 3
4.662700 24
4.670200 29
4.673100 89
4.674000 44
4.676800 26
4.679300 15
4.679400 64
4.681000 95
4.681100 57
4.681100 95
4.681500 17
4.683200 0
4.684700 55
4.684800 5
4.685500 1
4.688500 85
4.689400 48
4.691400 18
4.694300 30
4.698100 74
4.699400 47
4.701100 91
4.706600 72
4.708500 18
4.709600 2
4.711300 63
4.715300 91
4.717800 36
4.720500 54
4.721200 35
4.724600 8
4.729900 33
4.730500 90
4.733200 70
4.733500 4
4.735300 70
4.736300 84
4.739900 24
4.739900 75
4.741400 89
4.742700 45
4.743000 63
4.745700 17
4.746700 53
4.747500 78
4.749600 64
4.750800 92
4.751300 23
4.753300 14
4.754000 53
4.758900 22
4.763400 63
4.763400 73
4.766600 26
4.769200 28
4.769700 9
4.771900 23
4.772800 81
4.775400 72
4.776200 75
4.778700 64
4.782200 74
4.784800 7
4.789100 82
4.791800 32
4.793300 82
4.794000 66
4.794500 83
4.796200 94
4.796600 78
4.799100 83
4.803500 23
4.805200 65
4.811300 97
4.811700 16
4.812400 26
4.816500 58
4.820400 73
4.824200 25
4.825800 79
4.826400 25
4.828800 68
4.830000 67
4.832400 63
4.835300 87
4.835400 5
4.840000 7
4.842800 39
4.844200 41
4.844900 88
4.847200 41
4.850100 93
4.850500 37
4.851400 49
4.856200 45
4.856800 50
4.859400 8
4.859600 45
4.861200 0
4.861300 97
4.867200 14
4.873800 64
4.874600 65
4.878100 63
4.884600 15
4.885600 0
4.887700 37
4.890500 54
4.893300 42
4.894500 41
4.898600 33
4.901100 12
4.902300 75
4.902500 43
4.905400 82
4.906100 82
4.906900 58
4.907600 56
4.908400 58
4.910700 17
4.911700 42
4.912500 49
4.912800 27
4.913100 66
4.913900 52
4.914400 86
4.914500 24
4.914800 42
4.917300 77
4.918900 90
4.925200 51
4.925900 71
4.928000 21
4.928700 33
4.932300 69
4.935600 2
4.938300 16
4.940900 33
4.943000 55
4.943400 29
4.945900 0
4.946800 20
4.947500 90
4.952500 61
4.953200 42
4.953500 29
4.956600 7
4.956800 59
4.958000 49
4.958100 40
4.959600 84
4.964300 69
4.967600 82
4.970800 80
4.975600 95
4.977500 85
4.978400 35
4.978500 55
4.979900 89
4.980900 24
4.982700 77
4.985200 19
4.985400 36
4.986600 75
4.986700 13
4.987800 56
4.988100 7
4.988600 6
4.989100 79
4.990200 7
4.992300 56
4.995500 65
4.998400 0
5.007000 42
5.008700 66
5.009600 2
5.009900 98
5.010300 77
5.013600 65
5.016600 77
5.017000 11
5.025200 28
5.026800 37
5.028400 95
5.029600 51
5.030200 29
5.031900 92
5.036900 32
5.040400 33
5.044900 72
5.051900 61
5.055200 40
5.056100 7
5.056200 74
5.058200 22
5.058700 79
5.059600 88
5.060000 39
5.062400 31
5.062500 55
5.063600 48
5.066500 37
5.070500 45
5.070800 17
5.072300 17
5.073900 85
5.077100 60
5.078300 5
5.080000 65
5.084400 75
5.086000 8
5.086400 96
5.087300 50
5.088900 41
5.091600 78
5.094000 31
5.094400 94
5.095100 60
5.097200 98
5.099000 30
5.099900 93
5.104000 39
5.105000 98
5.110600 33
5.112400 64
5.113700 49
5.123700 63
5.123800 48
5.126600 92
5.127900 71
5.127900 79
5.130700 41
5.132600 55
5.133300 98
5.133500 5
5.135600 19
5.136300 10
5.140100 92
5.142300 10
5.146400 2
5.146800 57
5.148100 84
5.151800 82
5.152400 77
5.155200 75
5.156700 38
5.157500 62
5.157800 34
5.160600 10
5.160600 75
5.161000 19
5.170300 25
5.171200 7
5.174300 6
5.175400 88
5.177600 37
5.177900 98
5.178700 34
5.178800 40
5.179000 92
5.185800 68
5.186200 77
5.189800 73
5.194300 3
5.196300 27
5.197900 84
5.198000 96
5.199600 18
5.199800 42
5.200700 13
5.202000 49
5.212200 29
5.212900 9
5.212900 87
5.216500 10
5.218000 81
5.220100 19
5.223200 37
5.227600 26
5.228000 81
5.229600 76
5.229800 51
5.230900 28
5.231800 73
5.234300 37
5.241900 24
5.245900 35
5.249900 53
5.250400 54
5.251100 42
5.251300 20
5.258400 54
5.260800 81
5.263100 88
5.266000 93
5.266000 97
5.267800 71
5.268800 92
5.272600 14
5.272800 42
5.274200 89
5.275300 48
5.275400 85
5.275900 7
5.277000 89
5.278100 92
5.279100 79
5.280200 82
5.281600 26
5.289000 83
5.289900 91
5.291500 96
5.293300 3
5.294600 51
5.298100 5
5.298900 1
5.299100 72
5.304300 83
5.304600 58
5.306700 21
5.307400 54
5.310900 85
5.311300 46
5.312400 85
5.313000 41
5.315000 73
5.315700 99
5.316900 11
5.320100 61
5.323500 24
5.323900 22
5.324200 26
5.324400 96
5.325900 71
5.327100 93
5.330000 73
5.330300 19
5.331000 31
5.333300 35
5.335300 13
5.335900 27
5.336600 75
5.337500 39
5.339400 32
5.339500 82
5.340000 64
5.342000 9
5.342600 37
5.342800 93
5.344100 65
5.344600 75
5.351400 1
5.352200 99
5.354600 29
5.355100 25
5.355300 55
5.356000 65
5.358100 53
5.359500 45
5.361400 56
5.361500 3
5.365800 59
5.367700 67
5.368000 66
5.370800 77
5.374900 82
5.376400 78
5.376800 8
5.381000 96
5.382300 87
5.383300 2
5.385200 13
5.390200 96
5.391800 95
5.396300 93
5.400800 41
5.401200 16
5.404000 16
5.411900 35
5.412100 38
5.412700 62
5.413600 22
5.413700 85
5.415900 80
5.418300 90
5.421200 80
5.423000 69
5.425200 94
5.425600 67
5.426400 9
5.430200 37
5.431700 79
5.431900 65
5.435000 22
5.435200 39
5.437500 37
5.441200 31
5.443700 99
5.445300 7
5.446700 81
5.448000 48
5.449300 22
5.449400 75
5.449800 51
5.453500 74
5.454800 35
5.456000 48
5.456700 82
5.458400 40
5.460800 48
5.461000 77
5.461300 11
5.461500 84
5.462500 56
5.462700 61
5.466200 16
5.466700 60
5.468300 16
5.470000 6
5.470300 98
5.471700 82
5.474700 53
5.475500 32
5.478000 73
5.478500 61
5.482400 33
5.485600 61
5.486200 22
5.491200 38
5.491200 43
5.498200 76
5.499700 98
5.501100 57
5.502000 45
5.502400 39
5.507100 64
5.507700 30
5.509300 2
5.510200 80
5.510400 53
5.512700 70
5.514900 78
5.516000 62
5.519000 79
5.520500 53
5.522100 26
5.522700 88
5.523300 52
5.524300 26
5.525400 32
5.525800 37
5.526900 58
5.529800 71
5.530300 35
5.531500 74
5.534800 57
5.538900 60
5.541700 4
5.543500 97
5.544300 83
5.545200 19
5.546000 38
5.553100 87
5.553400 81
5.556000 60
5.565400 43
5.576500 26
5.576500 67
5.576800 14
5.580400 29
5.581500 63
5.584900 25
5.585000 28
5.585800 90
5.591600 19
5.597100 91
5.598400 6
5.601300 52
5.605900 60
5.609100 66
5.616000 69
5.616300 82
5.617900 68
5.618700 42
5.618900 19
5.620800 19
5.623200 68
5.624100 1
5.626600 87
5.631700 66
5.641000 83
5.644000 76
5.644900 13
5.647100 39
5.649900 80
5.650300 29
5.651300 31
5.652200 41
5.654800 74
5.656500 32
5.657000 34
5.663300 26
5.665100 65
5.665300 25
5.665500 46
5.668200 73
5.672400 96
5.676000 9
5.676900 36
5.683000 6
5.683400 47
5.688000 12
5.689200 24
5.689300 35
5.691400 22
5.691500 5
5.693000 10
5.696000 97
5.699800 50
5.699900 4
5.701000 41
5.701500 26
5.701900 95
5.703400 50
5.703700 11
5.704800 99
5.705900 82
5.707100 96
5.709700 92
5.710600 99
5.724600 53
5.726400 23
5.729000 80
5.730800 88
5.731700 61
5.732400 71
5.733000 46
5.733400 43
5.736500 94
5.736600 70
5.738700 62
5.741000 28
5.747600 3
5.747900 43
5.748900 82
5.752400 13
5.759300 97
5.763300 95
5.768900 36
5.771800 18
5.775100 19
5.775500 59
5.780700 49
5.781200 80
5.785500 67
5.786700 83
5.787800 23
5.788500 12
5.791000 19
5.791200 56
5.797600 25
5.797900 4
5.798800 42
5.801600 34
5.803100 82
5.804300 44
5.804700 42
5.807500 23
5.810400 57
5.815100 5
5.816500 84
5.824600 43
5.824900 50
5.826000 12
5.826400 6
5.826900 96
5.830600 97
5.839200 73
5.839700 19
5.840800 81
5.844000 70
5.846400 34
5.853100 39
5.853200 57
5.854300 71
5.856500 46
5.856800 3
5.857100 28
5.858500 65
5.859000 48
5.860300 13
5.862300 21
5.864000 66
5.865000 73
5.868300 51
5.868300 67
5.869400 22
5.870800 13
5.873700 44
5.874000 24
5.874000 55
5.874400 55
5.877600 21
5.878400 67
5.884700 32
5.886300 61
5.886600 38
5.886800 73
5.887100 54
5.889300 27
5.889800 24
5.890400 12
5.890900 89
5.894600 23
5.896600 82
5.897200 43
5.900700 40
5.903700 81
5.903900 50
5.910600 37
5.914500 12
5.914900 66
5.915100 47
5.921000 94
5.921100 36
5.921400 62
5.921700 67
5.929400 31
5.930300 4
5.930600 50
5.931100 81
5.931400 65
5.935100 56
5.936300 52
5.937900 20
5.944400 47
5.948500 97
5.949800 26
5.952100 17
5.959200 87
5.961300 21
5.962800 98
5.965900 31
5.966000 85
5.966200 70
5.968900 63
5.969000 97
5.972300 10
5.973000 49
5.973800 74
5.973900 9
5.975200 82
5.981000 48
5.981300 3
5.989200 26
5.989300 27
5.990000 6
5.991700 1
5.994500 89
5.997600 4
5.998900 57
6.001000 11
6.005000 10
6.005800 6
6.011200 3
6.011600 19
6.012800 72
6.015400 75
6.015600 12
6.017800 73
6.020200 71
6.021400 44
6.023100 28
6.023800 12
6.024000 92
6.026600 64
6.027400 17
6.029700 56
6.030400 90
6.030500 10
6.034500 12
6.041800 87
6.042500 20
6.050800 56
6.056300 8
6.056400 83
6.060300 46
6.060900 26
6.061200 42
6.061600 19
6.063300 59
6.063900 52
6.064200 61
6.064900 64
6.070300 35
6.072000 88
6.076500 14
6.077100 90
6.078600 76
6.082000 53
6.085500 46
6.087800 21
6.087800 33
6.090500 99
6.093500 63
6.093700 47
6.094500 2
6.096800 49
6.098900 50
6.100300 66
6.102700 57
6.104700 49
6.105300 15
6.105700 57
6.106900 93
6.107700 66
6.108400 21
6.113600 87
6.115300 41
6.115900 49
6.117500 96
6.121700 91
6.124600 74
6.125000 11
6.125000 62
6.127200 94
6.129800 62
6.131400 60
6.131900 21
6.134400 97
6.134900 6
6.141100 67
6.143100 98
6.143200 66
6.145000 12
6.145000 71
6.149300 51
6.149700 28
6.154900 91
6.156500 20
6.157600 99
6.158200 6
6.159300 98
6.159600 12
6.163300 1
6.163800 94
6.166000 87
6.168400 55
6.169700 36
6.174400 45
6.176600 47
6.177100 55
6.179300 65
6.181900 36
6.182200 64
6.182400 35
6.185400 18
6.185600 86
6.186100 94
6.201000 63
6.202300 38
6.209700 86
6.212000 35
6.215000 20
6.220700 93
6.230000 49
6.230100 85
6.231400 86
6.233700 64
6.235900 77
6.238200 59
6.238200 64
6.238200 69
6.243600 46
6.246600 44
6.248700 94
6.250800 83
6.251000 25
6.251400 65
6.252300 44
6.252400 53
6.254200 10
6.256000 60
6.258400 32
6.259100 42
6.261300 71
6.263200 59
6.264100 59
6.264800 68
6.266300 15
6.267500 18
6.268700 56
6.276500 23
6.278100 37
6.278800 3
6.280000 3
6.283500 27
6.285000 8
6.288600 56
6.289700 43
6.290700 73
6.291400 53
6.292900 71
6.297200 37
6.297700 12
6.307700 19
6.308500 28
6.309100 52
6.309200 26
6.309400 7
6.311500 12
6.315500 54
6.318200 67
6.318500 76
6.322800 17
6.324300 59
6.329100 38
6.331200 6
6.334000 78
6.334800 46
6.335600 23
6.337900 58
6.340500 38
6.348000 0
6.348900 88
6.349500 56
6.349600 84
6.349800 55
6.350600 16
6.351000 96
6.360300 87
6.360400 19
6.361400 29
6.362100 65
6.362400 12
6.363900 85
6.365000 58
6.365900 70
6.368100 30
6.372100 63
6.372700 74
6.373300 59
6.374700 18
6.377000 14
6.380400 30
6.381700 8
6.384200 11
6.387000 2
6.387000 39
6.389900 59
6.394800 27
6.396300 0
6.398700 59
6.399500 24
6.400700 23
6.402700 87
6.403400 68
6.403900 59
6.404800 16
6.407200 0
6.408100 13
6.409300 42
6.411500 75
6.412200 77
6.413200 52
6.413500 73
6.414100 55
6.415400 82
6.416900 11
6.417000 66
6.420300 12
6.424000 84
6.429300 74
6.431900 89
6.432100 71
6.433300 2
6.434900 62
6.440600 64
6.441800 59
6.442400 52
6.445600 38
6.448500 16
6.452900 90
6.453500 5
6.453800 76
6.454600 81
6.454900 53
6.459100 89
6.459900 15
6.460100 28
6.461000 8
6.465100 94
6.466900 10
6.467200 65
6.469000 46
6.469700 39
6.471300 99
6.471900 98
6.472700 97
6.476200 53
6.479000 87
6.481800 11
6.483200 70
6.485300 10
6.487700 24
6.493700 4
6.493700 37
6.496400 96
6.499200 6
6.502400 92
6.505700 47
6.506300 42
6.507100 65
6.507600 89
6.507800 48
6.508400 43
6.510200 61
6.510700 27
6.515900 80
6.516900 99
6.518300 96
6.518300 98
6.520200 85
6.523800 16
6.527200 25
6.528600 51
6.529300 66
6.530100 25
6.531100 12
6.531600 37
6.533800 40
6.535200 88
6.535500 59
6.535900 69
6.540900 51
6.541200 31
6.546500 5
6.547500 89
6.549200 58
6.549500 42
6.550000 19
6.555600 85
6.555800 95
6.556300 91
6.559300 43
6.560000 27
6.561400 18
6.561500 25
6.562500 4
6.562500 43
6.575900 18
6.576400 6
6.580300 84
6.580500 54
6.580500 78
6.582700 30
6.583600 21
6.587700 59
6.591200 78
6.592100 29
6.593400 53
6.594600 21
6.596900 64
6.597200 97
6.597400 18
6.597600 15
6.597700 36
6.599100 36
6.599200 73
6.600300 47
6.601100 65
6.601300 38
6.606300 80
6.606800 73
6.609300 82
6.611500 32
6.614600 28
6.615100 10
6.615500 5
6.618000 52
6.618100 27
6.619500 1
6.620500 81
6.623700 25
6.624100 29
6.624300 10
6.627100 82
6.627300 6
6.630100 49
6.630300 48
6.631000 89
6.631400 18
6.631500 18
6.635700 51
6.639700 41
6.647800 66
6.650900 19
6.651000 89
6.652700 52
6.653100 51
6.656500 58
6.659200 61
6.659900 7
6.662100 62
6.666500 39
6.667900 52
6.668500 46
6.669100 77
6.675200 39
6.682200 22
6.682600 99
6.682800 85
6.686300 48
6.690900 8
6.691600 47
6.696600 22
6.697600 55
6.699300 81
6.702700 73
6.705500 34
6.711500 55
6.711600 39
6.722900 92
6.724000 74
6.727000 28
6.731300 77
6.731500 80
6.733800 15
6.736200 96
6.736400 22
6.737700 69
6.742300 41
6.749900 89
6.750200 49
6.755100 45
6.758800 39
6.761100 20
6.763800 84
6.767000 9
6.768200 33
6.769000 22
6.771200 28
6.776000 30
6.776300 87
6.776500 28
6.776900 15
6.779800 41
6.780300 38
6.783700 63
6.784900 55
6.785400 98
6.786300 51
6.787300 77
6.787700 91
6.791400 64
6.799500 35
6.801400 85
6.802500 1
6.805700 23
6.808100 8
6.815900 95
6.820100 72
6.824700 64
6.835200 62
6.838500 82
6.842300 12
6.843200 4
6.846500 49
6.847700 55
6.848200 13
6.849300 48
6.849600 21
6.850900 1
6.851200 9
6.852400 29
6.853500 95
6.855000 56
6.855500 18
6.857200 72
6.857500 98
6.864900 0
6.866000 2
6.866000 7
6.866500 89
6.867300 66
6.867600 20
6.876400 22
6.876900 54
6.879700 9
6.881500 50
6.884200 51
6.884800 77
6.893600 19
6.893600 68
6.896400 61
6.902400 23
6.904100 93
6.906800 31
6.908000 37
6.916800 84
6.917300 55
6.918100 48
6.927800 71
6.931400 64
6.937200 90
6.938500 20
6.939700 65
6.942100 45
6.943500 15
6.944400 34
6.946000 54
6.948300 94
6.949300 65
6.950900 57
6.954200 72
6.956900 87
6.960900 19
6.963000 42
6.963600 46
6.967900 59
6.970000 47
6.970500 9
6.970900 39
6.971000 56
6.975600 87
6.978600 96
6.979500 87
6.980200 94
6.980400 46
6.983700 65
6.986400 28
6.987700 48
6.989200 23
6.992200 82
6.994900 85
6.998800 38
6.999400 70
