0.008200 59
0.008800 64
0.015800 46
0.018700 79
0.020500 10
0.024200 68
0.024400 28
0.026600 44
0.027900 5
0.031700 43
0.032200 9
0.033400 60
0.034600 66
0.035300 84
0.036200 76
0.036600 63
0.038200 90
0.039100 16
0.041500 83
0.042700 91
0.043000 12
0.048300 98
0.053300 1
0.056000 36
0.058200 84
0.065800 97
0.069600 27
0.069900 87
0.070800 74
0.071300 3
0.073000 15
0.074700 79
0.078700 98
0.078900 92
0.080700 36
0.082000 48
0.082800 38
0.083200 56
0.083400 27
0.085200 66
0.087300 89
0.087500 56
0.088700 43
0.088800 65
0.091100 14
0.093500 45
0.097700 46
0.097700 93
0.097800 11
0.098100 18
0.100400 61
0.101300 63
0.106500 97
0.107700 32
0.108100 92
0.109700 28
0.110100 8
0.110400 90
0.114500 34
0.117300 83
0.118100 19
0.122000 83
0.130600 8
0.134700 11
0.134700 18
0.135200 36
0.135200 52
0.141400 96
0.142200 25
0.143300 98
0.147000 25
0.147700 48
0.151600 10
0.152400 31
0.154000 44
0.155600 37
0.156500 33
0.158100 70
0.158800 4
0.159000 73
0.159000 96
0.163600 69
0.165400 97
0.168900 18
0.169400 74
0.171000 51
0.174100 30
0.174400 62
0.175000 32
0.177800 53
0.180900 31
0.181300 48
0.184600 46
0.185300 36
0.186100 30
0.189000 57
0.189100 92
0.192300 65
0.192600 44
0.193800 46
0.196400 66
0.203200 36
0.210400 29
0.211000 0
0.211000 46
0.213700 71
0.215600 97
0.217300 55
0.219300 32
0.220400 95
0.221100 90
0.222800 51
0.224500 36
0.226400 21
0.232200 83
0.234200 71
0.234900 85
0.236100 1
0.238200 70
0.239900 78
0.241400 71
0.242100 35
0.245900 39
0.251700 60
0.252200 75
0.252300 82
0.252700 31
0.257200 1
0.262100 60
0.275100 61
0.275600 91
0.277100 45
0.278300 84
0.280700 45
0.280800 90
0.282300 78
0.284500 2
0.284700 22
0.286100 66
0.295200 18
0.298100 93
0.303700 17
0.306100 43
0.307300 55
0.311100 48
0.317600 44
0.317800 25
0.320100 11
0.320600 1
0.320700 28
0.322500 90
0.323600 29
0.325400 55
0.327600 93
0.328700 23
0.329500 37
0.330500 23
0.335400 33
0.335800 69
0.339900 31
0.340400 93
0.340500 46
0.343300 27
0.343400 27
0.345900 69
0.348900 3
0.350100 61
0.351300 9
0.354100 29
0.361600 80
0.364000 98
0.370200 5
0.372000 51
0.372500 99
0.381100 34
0.382700 97
0.383900 22
0.384500 19
0.386600 95
0.389800 99
0.391500 96
0.392700 97
0.393400 60
0.399800 70
0.406700 60
0.409600 15
0.411100 12
0.413000 15
0.415600 83
0.416500 23
0.419300 18
0.419700 26
0.419800 27
0.422000 39
0.422500 35
0.423100 70
0.426200 88
0.428900 35
0.428900 55
0.429100 22
0.432700 2
0.433100 5
0.437500 26
0.438600 82
0.438900 67
0.442200 90
0.443200 94
0.444100 98
0.445600 64
0.446000 39
0.447400 59
0.449300 87
0.449600 13
0.449800 69
0.450300 13
0.451800 62
0.453200 41
0.455700 43
0.460100 27
0.461400 5
0.461500 18
0.461900 56
0.463800 65
0.470900 17
0.474700 14
0.475500 74
0.480000 7
0.482300 36
0.489000 94
0.491300 25
0.494300 77
0.497700 22
