0.000300 118
0.002900 58
0.003100 143
0.007400 131
0.007700 192
0.008100 71
0.008900 125
0.009500 45
0.011800 197
0.011900 62
0.012600 104
0.012700 101
0.012900 153
0.013600 191
0.014100 152
0.014300 1
0.018200 3
0.018600 170
0.018800 129
0.019000 49
0.019100 175
0.021200 136
0.022300 82
0.022900 33
0.022900 77
0.024000 117
0.025000 39
0.025200 136
0.026100 164
0.031400 102
0.031400 140
0.031900 53
0.032800 168
0.033000 28
0.033300 46
0.034300 70
0.034500 61
0.036300 148
0.037200 80
0.037800 135
0.038500 157
0.039400 88
0.042600 165
0.043500 168
0.044700 161
0.045300 67
0.045800 112
0.046000 175
0.046500 130
0.046500 150
0.046800 61
0.047200 102
0.048700 49
0.049700 185
0.050100 109
0.051300 44
0.052400 127
0.052700 128
0.053600 28
0.053800 108
0.054600 154
0.057100 110
0.057400 182
0.057500 129
0.058100 159
0.058500 31
0.059400 95
0.059800 68
0.060000 110
0.062600 112
0.064000 44
0.065100 196
0.065400 104
0.067100 160
0.067800 188
0.068800 79
0.068900 110
0.069300 169
0.070700 180
0.074100 150
0.074500 106
0.074700 10
0.075400 148
0.078700 63
0.079800 154
0.080400 122
0.081700 138
0.082000 109
0.083200 145
0.083500 125
0.083700 44
0.084200 66
0.084400 150
0.085000 27
0.086100 42
0.087200 125
0.088000 133
0.088800 102
0.089100 4
0.091900 75
0.093800 115
0.095000 50
0.095100 96
0.096200 58
0.096300 33
0.096400 197
0.096500 58
0.096900 194
0.097800 103
0.098000 104
0.099400 10
0.099400 72
0.099400 195
0.101100 139
0.101500 3
0.102100 21
0.102500 146
0.103000 183
0.103200 99
0.103900 199
0.104100 14
0.104600 24
0.106700 86
0.109500 157
0.111500 16
0.112300 157
0.113400 139
0.113600 167
0.114100 107
0.116800 163
0.119800 185
0.120900 72
0.122100 115
0.122800 185
0.125000 12
0.125100 183
0.126600 4
0.126700 173
0.127400 175
0.128400 47
0.128600 188
0.129400 25
0.132500 183
0.132700 126
0.137000 161
0.137700 49
0.139500 112
0.140600 73
0.142200 147
0.144500 149
0.144800 89
0.145200 137
0.146100 20
0.147200 137
0.148800 163
0.150900 75
0.152800 105
0.154000 6
0.156300 174
0.158800 33
0.158900 196
0.160100 122
0.162400 29
0.162500 100
0.163500 87
0.163900 120
0.164300 99
0.168000 180
0.169000 22
0.169500 37
0.170300 169
0.170600 33
0.171200 150
0.171700 83
0.171900 170
0.172100 20
0.173400 189
0.173800 92
0.175800 179
0.176300 129
0.177600 6
0.178400 64
0.178800 20
0.179100 86
0.180600 162
0.182500 94
0.183200 153
0.183400 150
0.184400 18
0.184900 165
0.189800 59
0.191100 156
0.191200 199
0.191800 125
0.192200 183
0.192300 73
0.193000 63
0.193500 156
0.194000 177
0.194700 29
0.195300 5
0.195700 169
0.195800 62
0.196700 171
0.198700 146
0.200800 114
0.200900 23
0.204700 122
0.205100 199
0.205300 198
0.205600 12
0.209900 155
0.210200 5
0.212100 28
0.212400 179
0.212700 86
0.213800 129
0.214300 88
0.215900 184
0.217300 123
0.218300 10
0.218500 140
0.219300 50
0.221400 116
0.222300 111
0.222500 43
0.222700 119
0.223300 36
0.223400 95
0.225100 2
0.225200 68
0.226200 179
0.227600 128
0.228000 54
0.228800 122
0.229200 154
0.229500 21
0.230100 163
0.230100 186
0.232200 8
0.234600 124
0.235500 185
0.235600 68
0.237200 103
0.239700 177
0.240100 72
0.240600 109
0.240900 67
0.241700 170
0.242100 183
0.242400 193
0.243600 60
0.243600 73
0.244000 90
0.244000 172
0.247700 36
0.248300 13
0.248800 138
0.249300 48
0.249400 76
0.250200 165
0.250800 89
0.252000 86
0.253200 37
0.253300 118
0.253500 22
0.253700 130
0.254100 48
0.254700 81
0.255400 5
0.256200 36
0.259000 147
0.259600 126
0.261100 185
0.262900 124
0.262900 179
0.263000 39
0.263200 30
0.263300 96
0.263700 199
0.264500 168
0.264700 134
0.266000 148
0.266200 151
0.268100 172
0.268800 163
0.269900 8
0.272100 10
0.273200 58
0.273300 8
0.274700 152
0.275500 41
0.276000 195
0.276900 65
0.280400 18
0.280600 192
0.282800 147
0.283400 4
0.283600 19
0.285300 119
0.287000 94
0.287500 109
0.289900 20
0.292100 15
0.293400 74
0.293600 162
0.294300 173
0.295100 189
0.295400 46
0.295400 71
0.295400 111
0.298700 25
0.298800 5
0.298800 198
0.301100 105
0.304000 164
0.304800 68
0.305100 146
0.306400 179
0.308600 24
0.308800 68
0.309500 174
0.310500 137
0.310600 152
0.311200 14
0.312500 120
0.312600 54
0.312900 100
0.313100 192
0.313700 66
0.316100 55
0.317900 168
0.319300 124
0.319800 39
0.319900 150
0.320900 7
0.326600 141
0.327600 93
0.328800 26
0.329000 35
0.330000 144
0.331000 192
0.332500 174
0.333600 182
0.333800 136
0.333800 190
0.334300 103
0.337700 161
0.338700 133
0.339800 109
0.339800 161
0.341800 56
0.342600 163
0.342700 188
0.342800 95
0.344000 78
0.345200 79
0.347100 186
0.347600 163
0.348700 140
0.350600 40
0.351400 12
0.353000 24
0.353300 97
0.354500 77
0.354500 140
0.354900 36
0.356900 44
0.359100 44
0.362000 119
0.362800 163
0.363000 184
0.365000 98
0.366200 158
0.367000 27
0.367200 157
0.367400 151
0.367900 32
0.368200 57
0.369600 183
0.370000 35
0.373000 32
0.373400 95
0.376400 133
0.377200 49
0.378200 1
0.379400 181
0.385000 79
0.385300 0
0.385900 87
0.386000 65
0.387800 127
0.388500 52
0.388600 81
0.392100 89
0.392800 53
0.396400 167
0.397900 2
