0.000100 15
0.000100 71
0.001800 89
0.002500 157
0.002800 196
0.003100 73
0.005000 122
0.006000 117
0.006800 155
0.007800 37
0.011400 41
0.013100 161
0.014000 70
0.017200 13
0.017700 184
0.018600 94
0.019000 176
0.019100 139
0.021000 20
0.022300 14
0.022500 42
0.022600 80
0.023900 13
0.023900 137
0.024700 59
0.027600 45
0.028600 24
0.029600 145
0.031100 44
0.031200 88
0.032400 178
0.033300 122
0.034500 157
0.034600 65
0.034700 156
0.035500 6
0.037200 51
0.037400 132
0.037800 74
0.038300 97
0.040200 87
0.040200 178
0.040400 183
0.043400 101
0.043700 103
0.043900 145
0.044100 43
0.044700 29
0.047600 33
0.047700 149
0.048700 6
0.049400 53
0.049800 122
0.049900 108
0.051600 65
0.052700 121
0.053600 137
0.054400 129
0.055700 86
0.057500 68
0.057500 173
0.062200 146
0.063800 70
0.064300 39
0.064400 198
0.065900 179
0.066500 88
0.068400 168
0.071300 147
0.071800 20
0.072400 111
0.073100 116
0.074200 98
0.075200 189
0.075300 85
0.075800 145
0.077900 26
0.078300 187
0.080100 41
0.082300 127
0.082400 6
0.082500 122
0.082800 168
0.083200 99
0.083500 20
0.083500 129
0.083900 13
0.084300 107
0.085400 98
0.085600 138
0.086700 87
0.087900 1
0.089400 137
0.090200 33
0.091500 114
0.092800 162
0.093500 108
0.094300 51
0.094500 67
0.095200 105
0.096600 43
0.098000 91
0.098100 154
0.100200 116
0.100400 105
0.103200 46
0.103800 72
0.103900 145
0.105100 22
0.105400 117
0.106000 162
0.106400 75
0.106400 185
0.111800 47
0.113000 103
0.113100 83
0.114200 186
0.114300 55
0.114400 90
0.114500 44
0.114900 128
0.115500 195
0.115700 7
0.116400 172
0.117400 114
0.118100 102
0.119000 110
0.121500 129
0.121700 48
0.121700 139
0.123000 118
0.125600 72
0.125900 168
0.126000 24
0.127400 2
0.127400 144
0.127500 114
0.128600 183
0.129000 42
0.129900 125
0.130300 154
0.131600 20
0.132700 37
0.133700 173
0.134200 33
0.134900 121
0.135200 107
0.136200 133
0.141700 193
0.141800 186
0.141800 194
0.143500 23
0.144500 104
0.145100 80
0.145100 100
0.145900 101
0.148300 131
0.149000 118
0.149900 21
0.152600 83
0.154700 114
0.155500 106
0.156000 67
0.157800 93
0.159500 188
0.159900 163
0.161700 198
0.162200 168
0.163400 153
0.163700 97
0.164600 159
0.167400 194
0.168100 19
0.168400 50
0.169100 96
0.169600 60
0.170000 176
0.170700 198
0.171500 149
0.174500 53
0.174800 177
0.174900 106
0.175800 66
0.176600 175
0.176900 32
0.177400 10
0.177500 171
0.178000 85
0.178800 85
0.178800 182
0.179100 58
0.179500 29
0.181400 51
0.182600 145
0.183500 134
0.188600 139
0.191600 4
0.191600 69
0.191900 66
0.192300 25
0.192700 153
0.195400 146
0.199000 99
0.199000 160
